49,232,80,303,204,202,78,41,1
55,182,81,303,192,195,77,42,1
61,218,85,289,201,198,82,46,1
61,206,78,288,207,213,88,46,1
64,210,91,311,197,206,89,48,1
80,190,93,255,189,284,90,49,1
84,197,95,272,188,297,90,48,1
88,164,87,274,188,320,81,45,1
89,176,85,260,189,308,71,42,1
90,203,73,270,178,335,85,43,1
76,220,75,347,171,295,80,41,1
66,241,75,342,187,305,85,42,1
65,269,79,372,200,328,98,46,1
65,268,88,379,261,358,111,47,1
59,257,90,374,313,469,117,45,1
56,274,83,399,356,567,122,45,1
69,277,85,445,376,621,124,48,1
86,264,86,443,401,676,185,65,1
86,284,84,457,376,690,188,68,1
97,288,86,537,335,658,184,73,1
104,263,86,496,304,613,187,73,1
96,257,89,476,307,566,194,74,1
79,231,85,480,308,483,134,58,1
87,221,77,506,303,452,129,61,1
76,210,74,469,314,403,125,53,1
84,220,82,482,318,360,142,58,1
89,230,82,529,292,374,135,60,1
97,248,86,581,247,415,141,63,1
98,258,87,559,236,398,137,59,1
114,269,87,530,234,396,159,67,1
109,279,86,544,269,417,142,62,1
113,283,93,564,302,447,143,57,1
109,278,90,495,325,416,144,58,1
104,290,93,493,370,440,145,57,1
82,269,91,481,368,412,117,47,1
82,241,87,448,329,369,112,47,1
77,262,75,355,332,302,108,50,1
68,249,75,348,312,275,103,48,1
65,208,73,334,261,258,106,50,1
70,231,78,341,259,267,105,50,1
64,270,75,352,272,299,102,49,1
63,243,76,328,230,319,118,50,1
66,277,73,324,252,348,126,45,1
77,312,69,312,263,353,138,51,1
74,300,62,338,266,353,144,53,1
70,273,63,314,252,332,150,56,1
62,258,51,301,245,301,141,52,1
68,235,52,328,258,322,135,55,1
53,184,50,329,256,315,116,47,1
51,219,48,279,254,313,113,45,1
53,212,43,273,249,310,122,42,1
54,218,50,311,244,322,116,42,1
62,206,50,280,204,267,109,45,1
66,227,52,295,211,308,108,45,1
68,186,51,281,196,318,101,43,1
73,186,61,341,206,299,83,42,1
79,213,61,328,219,332,90,50,1
65,235,62,312,210,349,97,47,1
66,214,64,306,189,340,105,49,1
65,228,69,320,201,350,114,49,1
58,241,58,255,217,376,119,50,1
48,218,54,254,220,398,111,41,1
53,208,54,294,230,392,109,36,1
52,215,53,314,243,358,99,34,1
52,204,46,302,237,377,97,35,1
54,195,50,298,222,365,90,37,1
56,187,51,275,237,331,91,40,1
57,184,47,248,229,318,88,43,1
57,183,45,218,215,323,87,40,1
59,171,47,215,211,276,74,38,1
63,172,45,201,201,271,83,38,1
67,161,44,202,174,295,82,37,1
60,144,50,239,180,301,95,34,1
65,137,49,251,194,300,109,38,1
63,174,50,301,205,308,109,40,1
63,198,57,335,212,303,108,37,1
59,204,58,352,204,234,110,36,1
63,214,57,340,220,223,109,37,1
59,218,57,320,200,227,108,35,1
64,207,57,263,179,220,109,36,1
59,178,50,240,184,229,110,36,1
60,169,45,218,186,254,127,37,1
57,167,45,209,155,267,120,35,1
56,172,43,216,201,267,114,40,1
55,168,45,214,209,266,116,40,1
58,166,47,211,202,254,120,39,1
59,208,48,219,205,236,108,41,1
66,202,50,217,216,221,110,43,1
70,198,50,222,173,232,114,41,1
71,187,47,221,206,252,112,43,1
71,190,47,221,199,241,99,44,1
69,137,46,203,200,269,92,44,1
63,129,45,183,192,274,88,42,1
58,128,46,149,211,269,79,41,1
55,134,44,148,181,262,92,40,1
54,143,43,141,195,304,95,40,1
56,147,45,138,191,278,101,40,1
55,161,41,134,205,287,99,42,1
55,151,38,143,187,271,105,41,1
50,146,40,152,197,260,96,44,1
49,134,46,189,196,257,112,48,1
52,137,44,209,191,304,106,45,1
75,125,44,212,203,327,118,55,1
79,163,51,226,212,395,120,61,1
85,177,50,237,203,412,119,59,1
87,184,46,206,196,426,103,59,1
83,182,44,193,193,400,99,59,1
68,184,48,183,164,370,83,51,1
61,187,43,171,153,354,76,45,1
52,180,41,143,138,324,76,49,1
54,203,44,117,146,340,74,49,1
57,219,51,114,170,356,94,55,1
52,252,66,141,183,403,116,59,1
67,238,69,167,196,374,119,61,1
83,272,74,182,214,394,122,58,1
79,262,74,225,205,356,118,54,1
82,285,79,245,201,355,112,51,1
81,257,68,265,224,333,92,46,1
71,246,64,248,221,327,100,44,1
56,231,66,243,207,333,96,44,1
56,231,69,208,204,328,99,47,1
51,191,62,180,200,327,110,48,1
57,195,59,135,163,302,112,48,1
53,211,61,186,157,320,106,47,1
48,186,56,197,179,354,106,46,1
54,180,51,205,176,389,119,50,1
57,202,48,215,187,426,105,46,1
57,221,48,233,192,432,100,45,1
72,241,53,216,193,422,97,47,1
75,253,51,220,194,419,103,48,1
74,269,57,232,213,409,99,46,1
72,264,60,248,214,384,100,47,1
75,258,66,246,212,398,115,53,1
65,228,66,245,227,398,122,59,1
65,213,71,314,226,382,127,63,1
71,190,67,355,222,370,125,69,1
72,170,64,413,233,345,123,69,1
73,196,63,420,255,346,111,66,1
76,227,68,417,238,374,107,62,1
78,240,66,387,239,364,108,59,1
71,242,63,347,257,343,102,52,1
70,251,64,283,264,363,95,49,1
67,210,61,283,236,351,101,47,1
69,209,49,273,256,313,98,42,1
68,207,49,252,242,288,91,43,1
73,193,52,248,227,319,97,38,1
73,182,53,239,195,277,102,41,1
71,205,52,240,207,305,99,41,1
62,183,51,294,184,319,94,40,1
65,182,51,362,214,331,93,39,1
59,194,55,359,222,299,96,41,1
60,197,53,353,223,351,94,40,1
56,192,55,343,217,307,92,40,1
59,196,56,299,220,300,94,42,1
57,175,57,196,196,276,87,37,1
57,173,48,208,178,267,78,35,1
57,238,49,189,168,203,79,38,1
57,230,50,173,167,267,83,39,1
69,222,48,186,166,264,87,44,1
65,286,46,200,161,262,87,45,1
65,280,48,186,165,285,84,47,1
66,221,49,206,197,305,103,43,1
65,221,49,223,208,245,97,42,1
53,277,49,219,201,240,97,39,1
59,231,49,226,200,257,101,38,1
60,294,52,227,201,262,103,38,1
67,331,53,220,236,307,92,43,1
72,343,55,215,244,338,108,47,1
75,316,59,303,276,419,115,47,1
82,322,57,314,290,442,120,54,1
86,280,56,341,321,464,126,54,1
85,259,56,337,289,444,126,49,1
83,250,51,368,284,439,119,46,1
82,244,53,304,262,372,119,46,1
68,224,55,291,243,346,129,44,1
62,255,54,266,195,295,123,44,1
57,271,50,268,176,273,119,47,1
59,260,56,228,185,241,118,46,1
55,254,51,231,209,261,132,43,1
59,255,55,214,218,249,116,38,1
65,231,57,211,225,261,119,37,1
59,210,58,215,250,248,120,36,1
57,213,56,202,238,276,115,38,1
57,200,56,221,220,255,88,36,1
52,190,50,222,216,276,98,39,1
43,167,47,210,208,275,107,40,1
50,166,46,198,178,288,106,41,1
56,169,42,203,173,286,106,42,1
61,183,50,157,165,302,120,48,1
69,244,52,151,191,318,116,49,1
72,268,51,152,197,309,109,50,1
92,260,54,144,202,300,124,60,1
91,271,64,147,190,310,144,66,1
89,272,64,140,183,299,137,67,1
89,235,67,213,157,296,151,70,1
88,224,84,244,182,328,150,70,1
66,264,84,272,181,362,134,63,1
71,266,77,295,198,329,117,61,1
73,256,72,312,206,345,117,60,1
66,246,67,275,198,336,95,54,1
63,223,43,251,164,311,91,53,1
63,155,60,236,167,259,96,55,1
49,118,89,215,170,269,102,49,1
45,106,177,190,158,242,113,50,1
45,93,190,171,170,210,120,52,1
44,99,196,165,197,231,127,51,1
38,94,193,140,185,244,128,47,1
53,114,183,124,185,257,126,53,1
56,129,119,135,230,262,126,63,1
53,125,103,163,226,281,129,63,1
56,122,103,183,221,271,139,63,1
93,119,108,218,236,270,139,69,1
91,120,108,217,231,276,135,67,1
105,191,97,227,198,266,137,70,1
112,245,96,216,206,264,141,71,1
118,278,88,207,227,311,145,79,1
96,319,82,228,225,373,167,81,1
92,321,85,232,247,394,179,84,1
82,300,78,264,269,405,169,77,1
76,283,75,264,284,415,165,73,1
64,254,70,272,258,387,152,66,1
62,198,64,228,248,314,124,61,1
64,193,57,234,220,262,105,53,1
54,169,50,186,184,219,135,50,1
50,131,47,180,153,172,142,52,1
61,149,56,179,151,182,139,52,1
61,150,61,186,157,188,140,48,1
63,141,62,202,161,210,140,50,1
62,166,66,201,180,239,106,45,1
64,177,68,196,177,259,86,41,1
60,205,75,191,187,270,81,40,1
64,208,78,213,196,302,95,49,1
65,222,81,224,231,314,98,51,1
68,244,79,241,227,323,103,55,1
78,239,78,363,254,367,102,56,1
74,243,67,386,270,376,118,57,1
78,257,59,395,283,391,109,51,1
79,263,62,432,276,403,113,49,1
92,243,81,445,290,407,114,49,1
107,267,86,405,370,494,146,60,1
119,242,94,474,432,558,169,74,1
119,276,100,504,448,669,211,86,1
121,276,103,479,463,718,261,90,1
110,265,88,480,460,711,260,89,1
90,247,81,449,403,651,253,82,1
74,235,71,348,329,587,238,74,1
65,172,61,272,290,420,213,64,1
55,143,48,225,264,310,154,59,1
59,154,50,176,246,321,164,70,1
62,143,59,140,226,297,177,81,1
65,139,64,134,212,331,196,81,1
79,195,64,150,215,423,187,80,1
80,201,71,240,199,456,204,81,1
82,200,72,277,255,531,209,73,1
79,222,73,340,243,553,192,67,1
78,227,73,373,239,523,169,64,1
66,183,72,372,232,472,168,61,1
75,207,65,326,273,503,146,63,1
76,191,62,313,214,417,169,66,1
78,161,57,279,208,370,185,60,1
77,161,48,235,207,364,195,59,1
75,168,49,249,209,370,192,58,1
65,147,52,247,167,290,190,49,1
55,155,52,221,181,270,157,40,1
45,148,46,172,183,260,138,43,1
38,140,52,177,187,261,139,38,1
55,136,49,158,211,233,149,44,1
52,131,43,150,203,208,154,46,1
69,138,42,152,225,269,154,50,1
76,170,52,172,246,298,198,48,1
80,196,50,186,243,321,189,50,1
75,241,65,307,276,381,199,51,1
80,255,74,330,322,396,193,53,1
71,268,77,435,335,387,211,69,1
77,284,71,449,363,381,175,72,1
77,289,78,466,392,380,175,74,1
79,269,72,435,391,388,162,77,1
82,257,70,486,367,389,177,79,1
87,280,72,409,384,450,156,62,1
81,253,78,423,360,459,153,58,1
86,237,77,410,334,469,154,56,1
79,223,78,412,313,473,157,47,1
72,243,81,356,298,526,144,47,1
75,217,76,377,265,482,144,52,1
76,236,71,377,270,470,139,54,1
84,255,67,373,303,458,142,59,1
86,250,60,348,295,403,139,63,1
88,229,52,349,303,339,127,64,1
80,207,60,320,299,334,125,64,1
76,179,61,338,296,347,116,63,1
69,215,59,336,258,355,114,58,1
71,247,62,310,262,350,111,55,1
73,264,66,289,247,359,123,50,1
69,268,57,288,238,315,121,46,1
69,270,56,221,209,289,132,46,1
61,244,60,231,207,305,151,50,1
58,251,58,247,206,359,146,47,1
58,229,50,249,205,419,153,50,1
62,233,56,238,187,433,149,51,1
71,258,56,228,232,451,143,51,1
79,260,53,205,242,438,130,54,1
87,263,51,220,246,415,136,59,1
83,285,55,248,264,344,114,53,1
91,322,50,257,278,342,126,52,1
86,327,51,349,262,395,128,57,1
98,315,51,382,271,387,123,61,1
88,297,55,374,261,379,123,61,1
90,290,57,351,237,385,137,64,1
79,254,66,349,230,389,127,63,1
85,246,73,284,227,318,132,63,1
90,244,86,272,224,333,138,58,1
92,246,92,252,232,343,138,58,1
94,262,96,275,280,358,144,58,1
108,268,93,288,279,379,146,63,1
102,278,88,311,291,400,140,57,1
83,290,78,321,299,477,129,57,1
82,293,69,350,300,484,142,56,1
81,277,59,331,284,511,140,57,1
70,274,66,353,276,536,144,56,1
83,279,68,322,264,561,146,65,1
83,271,66,291,279,493,145,63,1
89,260,66,286,269,492,127,60,1
89,291,70,280,242,444,116,60,1
90,276,62,249,248,446,122,57,1
81,270,64,252,248,425,118,47,1
77,263,61,243,238,453,115,45,1
73,260,65,254,282,437,108,44,1
67,249,90,321,280,441,105,45,1
72,271,108,320,270,374,87,44,1
78,265,108,317,278,376,117,59,1
84,335,121,348,263,369,121,63,1
92,354,121,332,224,363,132,69,1
96,357,113,308,236,369,127,71,1
90,356,107,351,241,400,138,72,1
86,345,119,353,225,420,123,73,1
86,281,138,396,209,396,125,70,1
79,262,140,433,227,400,121,65,1
77,258,139,424,233,461,125,63,1
91,234,137,433,247,446,115,62,1
87,256,133,434,248,399,104,50,1
92,296,101,374,252,426,101,48,1
99,303,101,321,233,424,100,51,1
107,276,101,300,232,329,99,50,1
98,290,100,266,242,354,101,53,1
102,266,99,288,250,338,98,51,1
93,222,102,294,266,290,116,52,1
84,224,102,327,258,337,112,47,1
87,248,101,338,241,351,108,44,1
79,245,99,359,229,343,124,45,1
75,263,90,341,233,363,128,44,1
74,263,90,334,229,358,106,44,1
83,253,96,315,240,327,109,49,1
67,251,93,317,241,331,112,51,1
66,245,88,262,239,318,114,48,1
62,221,110,281,234,312,108,46,1
76,220,114,293,214,388,115,43,1
68,237,123,286,202,419,140,52,1
70,225,126,266,224,408,143,49,1
73,279,126,255,216,459,132,50,1
76,299,109,241,201,456,134,52,1
64,296,122,258,211,430,133,53,1
60,277,119,266,220,420,104,44,1
60,291,121,277,194,412,99,45,1
68,234,120,307,211,389,88,46,1
66,222,135,294,213,388,96,52,1
72,210,126,272,218,457,92,53,1
76,225,113,265,215,493,110,51,1
76,244,119,285,229,511,115,52,1
79,255,128,261,207,501,121,54,1
79,249,118,291,207,552,112,48,1
73,255,115,320,236,548,118,49,1
73,260,117,309,226,513,109,49,1
70,248,129,299,231,527,100,47,1
72,253,125,310,245,516,99,45,1
70,262,127,286,244,514,126,48,1
71,263,127,272,224,530,131,52,1
76,251,132,308,235,517,121,56,1
77,218,104,309,221,606,146,56,1
67,217,111,299,199,638,156,55,1
72,195,109,322,191,616,138,56,1
70,218,114,325,188,572,146,53,1
63,203,115,301,177,592,155,52,1
71,214,119,294,172,521,158,65,1
67,237,113,297,195,533,163,66,1
64,242,112,289,213,523,174,64,1
62,214,109,277,199,540,177,66,1
58,246,108,285,214,667,178,68,1
48,249,111,329,228,675,160,56,1
50,200,103,332,217,651,143,54,1
47,204,107,325,212,648,132,55,1
52,211,108,335,213,658,117,48,1
52,186,103,352,197,603,118,47,1
55,210,115,328,195,602,117,45,1
58,246,131,329,199,584,123,45,1
63,245,134,336,192,602,134,48,1
62,256,136,328,186,557,130,49,1
64,258,136,307,187,522,131,49,1
63,220,125,301,186,485,130,49,1
63,230,126,286,187,540,138,50,1
61,269,114,272,196,546,131,54,1
61,263,102,256,192,617,129,53,1
57,277,100,247,198,603,124,51,1
65,300,101,247,187,597,123,53,1
64,274,82,251,193,551,116,50,1
59,304,89,265,174,556,109,40,1
60,318,101,261,201,547,117,42,1
60,304,98,258,190,523,113,41,1
65,308,91,238,193,591,121,40,1
73,317,88,226,197,620,111,38,1
75,250,79,205,217,663,114,38,1
72,246,60,196,213,590,116,32,1
85,268,60,182,242,660,114,36,1
72,236,65,189,237,622,110,34,1
64,232,73,200,265,645,114,37,1
65,230,77,202,257,617,107,44,1
68,222,78,201,245,673,92,49,1
56,207,89,247,223,575,85,49,1
59,248,85,258,227,541,78,49,1
55,240,85,275,186,521,80,50,1
54,245,98,278,183,501,86,45,1
49,285,121,300,187,427,92,46,1
55,289,118,297,194,438,90,45,1
54,255,115,284,192,437,90,49,1
76,257,116,278,203,465,92,56,1
79,256,111,259,198,462,87,59,1
84,234,88,241,191,472,77,56,1
85,220,124,217,189,483,79,61,1
87,230,138,250,211,508,81,57,1
83,255,133,242,188,449,74,48,1
80,258,128,285,191,393,71,48,1
76,219,131,285,198,387,71,47,1
69,250,91,274,180,348,74,48,1
125,265,74,228,176,344,86,62,1
163,267,81,217,188,313,83,84,1
278,290,88,170,188,326,104,181,1
302,311,84,156,187,322,113,196,1
319,341,86,153,195,319,116,202,1
306,326,86,155,176,279,104,199,1
290,318,81,153,199,272,106,198,1
185,310,72,167,222,268,86,122,1
144,309,77,182,237,248,81,94,1
113,257,88,231,233,251,71,81,1
105,298,90,239,228,304,76,79,1
91,300,90,242,212,309,72,62,1
89,291,91,230,231,305,79,48,1
112,274,107,315,216,349,78,57,1
107,261,103,311,235,382,85,54,1
110,246,106,323,245,338,83,54,1
131,248,117,334,239,332,84,56,1
133,259,122,352,234,341,75,54,1
139,273,108,284,229,302,69,49,1
145,303,113,253,217,249,59,50,1
143,287,110,268,234,296,54,48,1
147,259,102,275,250,343,54,44,1
148,253,95,262,251,326,63,49,1
133,275,101,265,272,311,66,46,1
134,248,86,275,264,360,71,44,1
129,254,88,251,252,336,77,45,1
108,260,83,218,254,303,78,42,1
106,250,79,202,229,349,77,42,1
114,234,64,191,214,384,76,52,1
107,239,64,176,245,396,81,57,1
115,235,62,153,236,410,77,58,1
145,240,61,149,218,434,99,74,1
208,251,74,147,213,438,119,115,1
229,230,73,130,222,438,135,123,1
252,218,82,117,189,442,141,127,1
256,216,77,113,195,435,147,145,1
243,223,76,110,181,407,136,138,1
227,253,75,120,200,372,130,154,1
209,244,83,120,194,357,115,159,1
201,252,86,117,194,338,106,162,1
201,281,90,132,182,343,105,168,1
212,280,89,171,205,400,106,178,1
220,285,93,159,186,415,103,148,1
231,358,88,176,168,418,107,141,1
254,441,103,226,201,518,157,150,1
256,479,103,230,235,588,229,142,1
253,507,113,221,253,708,303,140,1
222,495,111,274,308,741,364,140,1
246,487,161,315,366,837,393,142,1
238,413,167,341,377,801,392,134,1
244,386,179,376,392,825,363,120,1
240,405,179,401,387,714,303,109,1
249,416,177,374,378,682,228,97,1
218,415,139,375,340,590,179,83,1
190,425,120,348,327,598,156,69,1
214,417,109,324,319,503,140,70,1
220,412,130,305,307,548,142,67,1
209,392,145,309,269,584,135,71,1
201,385,152,283,265,546,127,69,1
209,402,163,306,258,487,107,68,1
161,384,163,300,234,570,110,65,1
148,359,164,292,260,517,125,68,1
150,366,164,321,252,468,123,69,1
144,339,162,321,236,490,125,67,1
125,327,176,313,249,520,140,67,1
129,316,186,323,239,389,131,68,1
140,308,177,346,240,432,131,71,1
142,307,170,315,251,463,136,74,1
147,340,185,385,250,445,139,81,1
139,340,174,374,247,428,133,75,1
148,380,158,373,251,489,143,76,1
144,402,161,390,228,513,130,69,1
129,445,172,462,253,535,139,67,1
128,435,151,415,257,527,141,65,1
150,450,162,429,263,619,161,71,1
137,448,169,480,280,597,156,67,1
122,420,165,514,289,563,165,69,1
129,392,148,458,284,644,155,66,1
129,415,153,440,296,645,152,69,1
106,411,137,416,283,539,123,62,1
107,374,149,345,270,568,119,65,1
112,362,155,261,285,561,126,67,1
112,346,159,270,274,410,131,71,1
100,300,157,289,253,409,133,66,1
96,250,148,310,242,449,138,71,1
95,298,153,314,235,372,144,72,1
105,361,157,294,178,378,124,69,1
94,356,182,311,148,373,115,63,1
92,368,192,319,142,391,105,61,1
102,391,203,333,134,363,96,58,1
99,375,211,391,121,357,91,55,1
97,358,219,423,131,304,99,54,1
101,370,208,412,129,308,114,65,1
107,348,207,390,184,280,118,66,1
99,338,202,360,185,255,120,64,1
112,340,190,327,190,311,132,72,1
114,305,186,341,195,334,136,76,1
115,318,178,356,203,336,131,67,1
118,342,220,376,210,338,140,71,1
117,336,239,370,225,339,137,71,1
101,313,284,382,228,306,117,63,1
83,313,280,334,225,266,107,55,1
77,294,289,312,235,229,102,56,1
62,256,275,285,201,229,83,47,1
62,252,259,294,182,204,84,43,1
61,245,213,229,189,212,87,39,1
61,212,238,238,197,229,102,40,1
51,181,237,208,176,261,105,40,1
59,189,245,247,175,256,103,47,1
60,212,245,248,175,271,115,54,1
63,199,287,362,158,276,125,68,1
72,209,306,428,159,296,125,72,1
97,194,319,443,174,298,126,78,1
94,188,339,431,194,300,128,94,1
95,161,347,432,197,308,116,95,1
96,152,348,381,213,291,126,89,1
92,139,323,323,210,292,121,90,1
66,198,315,302,203,292,113,83,1
71,219,272,317,201,297,116,64,1
67,218,271,360,206,290,134,65,1
89,236,228,330,187,284,111,59,1
89,264,209,313,188,263,105,53,1
114,259,206,351,213,246,102,54,1
141,262,232,360,199,236,95,63,1
239,265,263,310,211,289,99,68,1
253,295,293,299,238,300,104,83,1
258,292,312,290,247,297,131,98,1
253,320,321,274,241,336,135,100,1
253,328,325,245,267,422,156,99,1
170,322,316,245,277,421,146,94,1
160,333,279,251,281,437,157,90,1
163,342,252,268,291,534,148,82,1
174,338,219,261,295,545,153,84,1
172,337,170,289,306,511,139,82,1
167,360,105,326,297,562,135,86,1
165,358,80,321,288,603,134,93,1
164,361,66,302,300,600,121,86,1
172,336,72,290,285,754,124,84,1
157,316,66,253,301,854,129,83,1
162,321,59,226,311,890,128,76,1
174,298,68,254,312,872,120,62,1
167,287,77,297,290,881,118,64,1
159,311,83,321,303,813,124,65,1
184,373,138,426,302,802,121,66,1
187,365,195,435,309,739,122,73,1
168,370,214,447,336,801,165,77,1
177,373,232,531,338,749,170,76,1
188,390,267,526,368,703,160,77,1
179,380,276,460,335,570,158,77,1
180,368,262,462,310,526,160,75,1
196,357,296,480,327,384,116,78,1
197,336,295,375,329,376,109,78,1
173,276,268,373,281,312,107,74,1
156,239,236,361,271,348,106,70,1
143,240,230,433,308,411,96,63,1
107,248,173,443,242,455,102,52,1
97,279,156,435,233,436,101,54,1
105,299,153,459,250,418,98,55,1
98,286,183,476,284,489,99,55,1
117,346,315,454,246,452,98,58,1
122,372,330,468,319,409,80,58,1
118,354,331,474,331,424,86,58,1
105,338,334,445,355,446,92,55,1
107,335,321,437,339,340,92,58,1
93,271,174,403,340,319,94,55,1
80,218,138,335,270,335,99,50,1
72,208,136,312,248,325,99,50,1
77,202,130,322,233,309,93,47,1
90,215,186,328,201,386,88,46,1
89,250,209,333,211,414,87,49,1
89,248,286,333,214,426,82,48,1
97,274,295,378,222,453,92,46,1
92,279,295,362,175,462,94,46,1
104,275,266,353,179,397,95,42,1
102,333,264,301,201,378,102,41,1
103,355,239,305,211,356,105,47,1
102,341,227,303,203,313,91,44,1
104,362,281,334,216,305,88,45,1
76,349,297,371,237,303,88,45,1
71,258,286,423,202,287,78,42,1
70,216,238,410,197,290,69,34,1
63,212,242,385,195,286,65,38,1
63,195,214,372,192,244,60,40,1
62,191,197,372,175,251,58,38,1
63,218,197,321,175,249,57,36,1
64,237,226,368,157,230,74,41,1
65,239,236,389,158,233,83,43,1
76,217,205,373,159,236,89,45,1
83,230,214,314,163,220,96,51,1
83,199,233,305,158,212,97,51,1
88,172,211,272,178,259,102,54,1
89,181,199,279,181,268,99,58,1
83,205,196,285,217,274,97,58,1
77,188,191,302,203,268,93,54,1
81,193,162,311,204,275,102,55,1
71,198,217,319,224,249,91,51,1
65,191,216,283,231,257,90,42,1
68,174,213,289,196,257,90,42,1
74,227,201,283,222,264,89,46,1
72,222,205,280,224,258,84,49,1
89,220,141,340,218,236,79,51,1
89,226,168,331,212,198,72,50,1
85,241,183,323,216,231,69,47,1
80,188,179,344,204,240,71,48,1
81,194,183,364,206,245,72,46,1
61,185,192,341,199,248,79,46,1
64,174,156,343,186,268,93,50,1
72,137,136,370,178,233,94,49,1
78,149,161,346,173,203,86,46,1
81,147,146,341,184,193,76,52,1
81,156,151,288,202,218,71,47,1
79,186,153,284,200,195,62,47,1
70,191,164,251,226,196,57,45,1
63,197,145,263,233,207,60,44,1
55,192,162,234,230,213,65,36,1
57,184,143,270,199,203,70,40,1
69,173,365,286,198,191,68,41,1
84,174,399,334,185,196,68,47,1
95,208,424,363,182,252,75,50,1
101,234,449,388,198,311,82,56,1
108,267,472,358,205,319,81,59,1
106,265,357,368,215,327,78,58,1
108,326,463,364,237,375,80,57,1
100,305,445,333,243,356,71,55,1
102,294,434,331,230,302,59,48,1
107,272,411,345,227,321,57,48,1
104,260,390,371,240,362,62,48,1
88,205,200,352,218,315,60,46,1
92,197,183,344,212,295,60,48,1
85,197,143,328,203,322,63,49,1
78,195,152,324,203,297,59,45,1
74,196,297,282,205,255,59,45,1
80,174,308,282,200,246,56,44,1
71,164,318,289,188,250,64,41,1
69,155,316,297,194,220,68,46,1
59,181,307,308,212,195,80,50,1
65,187,193,346,181,189,118,52,1
68,180,181,335,166,206,125,51,1
68,189,173,346,186,219,129,51,1
75,212,203,342,170,222,139,48,1
73,196,200,317,135,225,135,41,1
84,222,264,271,148,227,109,42,1
78,225,323,281,154,255,112,43,1
79,238,340,269,153,245,106,45,1
76,222,335,294,161,276,89,46,1
88,212,372,296,167,296,88,46,1
95,194,356,288,171,282,90,51,1
98,188,347,300,206,255,77,48,1
104,165,334,322,208,266,76,48,1
106,181,403,288,211,249,78,48,1
100,214,431,318,210,246,79,50,1
86,207,479,333,211,298,69,41,1
93,211,477,308,175,297,68,48,1
90,228,497,299,174,291,75,48,1
98,291,447,294,199,286,83,48,1
107,299,401,340,201,272,84,49,1
101,313,311,325,191,220,87,49,1
96,340,256,339,216,258,89,46,1
110,336,214,339,202,244,84,48,1
99,267,195,336,180,251,77,48,1
89,247,167,252,198,245,93,47,1
90,268,152,289,206,285,94,44,1
96,236,155,278,175,247,101,47,1
85,237,151,264,168,249,102,48,1
83,269,168,262,182,264,110,46,1
79,269,167,273,200,363,116,46,1
82,231,177,278,195,366,127,51,1
77,239,181,285,250,379,123,48,1
63,228,192,285,257,385,123,43,1
68,192,184,305,243,408,117,44,1
77,180,222,326,215,340,106,46,1
82,193,268,293,210,303,97,46,1
86,209,293,288,147,315,95,48,1
99,228,298,300,152,322,95,50,1
119,232,328,324,170,295,96,62,1
120,240,325,288,172,296,104,60,1
119,266,336,283,177,325,107,67,1
130,260,314,302,192,371,109,69,1
127,248,321,307,184,375,107,68,1
110,243,287,269,195,344,102,57,1
114,282,260,286,254,329,80,59,1
110,242,197,273,294,310,68,46,1
122,283,219,248,293,215,60,49,1
118,308,188,255,298,184,66,56,1
120,313,210,253,289,226,70,68,1
128,303,242,312,233,230,84,94,1
135,303,291,440,201,219,96,102,1
111,249,271,451,210,225,107,101,1
112,212,277,441,202,249,111,101,1
111,227,254,437,205,208,108,98,1
94,230,226,398,218,209,99,73,1
92,224,144,261,195,198,81,62,1
87,222,129,221,183,191,67,62,1
83,219,89,187,180,150,52,56,1
75,188,75,194,165,151,55,49,1
75,105,47,176,162,127,55,55,1
65,96,41,157,208,133,72,55,1
60,72,36,144,200,153,97,51,1
56,74,37,159,210,186,105,51,1
54,81,48,166,208,188,108,47,1
48,85,60,180,214,212,110,40,1
55,100,86,206,195,226,120,46,1
70,123,108,229,201,235,109,48,1
93,165,127,265,229,239,105,50,1
120,203,136,256,234,270,102,56,1
178,233,138,242,231,260,101,84,1
186,247,135,234,241,250,95,101,1
243,244,123,216,241,278,101,117,1
275,245,124,190,226,263,115,136,1
308,215,118,202,232,253,118,156,1
316,199,129,201,227,310,126,161,1
322,250,130,196,225,346,121,154,1
353,260,129,199,218,355,122,194,1
331,244,120,182,202,354,112,192,1
307,279,116,175,208,396,116,176,1
269,273,99,169,205,366,116,163,1
256,213,86,159,180,365,115,161,1
145,198,90,170,220,321,100,93,1
126,197,80,172,249,339,98,70,1
82,162,80,158,256,314,92,70,1
84,176,76,161,262,339,97,64,1
82,176,73,165,273,335,104,57,1
74,176,65,149,246,350,106,54,1
92,185,61,132,220,329,113,61,1
153,168,57,129,208,303,126,75,1
168,172,61,140,189,305,135,94,1
241,202,64,129,175,313,145,135,1
325,240,74,148,190,406,149,153,1
324,235,75,154,198,444,185,168,1
309,233,77,167,207,443,182,164,1
327,234,82,158,216,447,169,171,1
297,216,83,189,252,503,169,180,1
207,199,78,176,248,462,169,193,1
205,203,85,171,273,439,133,191,1
197,221,82,175,292,450,128,191,1
148,206,76,178,294,455,125,176,1
104,216,76,148,261,364,97,137,1
95,200,91,189,269,316,93,96,1
94,203,112,263,242,338,95,76,1
94,266,128,290,217,324,165,85,1
115,314,159,294,214,353,286,103,1
176,345,224,304,237,389,340,130,1
201,362,242,280,235,402,376,143,1
226,371,237,227,248,417,399,156,1
260,352,240,191,251,457,403,217,1
255,319,233,201,266,412,364,227,1
222,345,262,226,262,404,331,218,1
209,338,252,255,257,434,305,223,1
183,358,258,279,242,393,273,230,1
147,360,260,289,229,392,249,183,1
142,357,263,327,229,433,205,163,1
136,285,225,384,253,447,195,164,1
119,275,230,447,263,506,177,146,1
117,242,352,541,307,514,180,117,1
84,190,379,600,345,480,161,98,1
78,180,425,659,416,465,153,95,1
73,188,446,694,421,505,138,87,1
68,172,465,651,417,405,131,80,1
56,139,402,574,389,413,118,74,1
57,125,379,504,360,465,113,65,1
52,111,330,392,281,460,110,63,1
44,99,272,249,283,405,112,57,1
42,86,220,235,285,426,124,59,1
41,83,177,237,289,457,153,66,1
39,84,194,327,318,465,160,67,1
57,162,285,375,318,500,336,70,1
91,332,446,486,327,499,356,87,1
123,403,598,555,377,561,389,108,1
143,446,689,646,553,637,394,115,1
148,463,712,666,602,684,392,117,1
149,462,698,687,633,697,279,118,1
148,399,625,638,620,694,259,110,1
125,334,512,612,598,679,214,90,1
103,287,426,568,455,578,194,76,1
121,280,380,508,361,473,201,76,1
117,250,347,447,289,384,165,68,1
102,194,317,408,285,362,152,60,1
105,213,279,368,267,267,122,58,1
125,212,215,278,231,254,109,61,1
120,281,213,261,233,227,75,56,1
146,364,237,272,225,206,71,61,1
152,373,259,288,198,214,77,63,1
166,378,260,283,190,207,84,67,1
157,382,269,283,203,286,103,68,1
157,336,296,345,230,301,108,69,1
142,260,270,327,235,370,116,68,1
141,269,255,309,244,355,109,67,1
127,252,253,329,250,369,104,63,1
133,297,257,333,238,337,89,64,1
121,337,222,271,206,516,101,63,1
112,337,241,275,226,518,110,73,1
139,392,255,283,258,538,150,113,1
150,393,253,255,248,547,171,141,1
144,356,220,226,251,593,178,139,1
145,301,211,220,264,502,212,141,1
146,289,187,214,243,491,211,137,1
111,178,146,208,245,507,199,111,1
89,183,166,325,265,492,188,75,1
85,188,190,342,289,473,182,74,1
81,202,193,353,279,476,138,69,1
76,209,195,354,273,463,129,66,1
72,218,196,346,239,469,112,68,1
70,204,192,234,276,465,116,71,1
75,191,173,215,245,413,138,82,1
69,171,168,205,246,342,145,81,1
72,157,168,206,266,340,154,92,1
75,126,176,250,267,317,209,97,1
78,114,173,266,211,318,317,99,1
68,119,173,264,229,315,364,108,1
65,147,198,269,241,431,365,109,1
62,158,186,263,237,459,368,112,1
67,159,183,213,257,464,366,120,1
61,156,163,196,276,458,282,118,1
66,164,188,175,272,467,217,111,1
74,149,164,151,257,386,222,111,1
75,145,165,144,256,379,233,123,1
68,143,162,157,224,446,242,104,1
68,145,159,162,195,489,235,101,1
74,148,129,209,197,532,238,102,1
66,137,125,235,193,513,228,108,1
61,127,119,245,184,500,217,83,1
129,137,107,247,182,406,160,102,1
160,181,101,242,173,359,172,117,1
164,178,109,234,168,332,161,124,1
165,189,110,221,186,349,166,130,1
170,193,108,224,184,336,163,130,1
128,214,113,248,227,351,163,129,1
88,211,126,276,251,356,144,117,1
78,308,126,283,245,351,140,102,1
88,365,146,306,240,360,151,88,1
81,452,174,391,239,376,147,89,1
101,523,202,393,281,420,149,74,1
110,537,205,407,263,496,150,74,1
119,545,224,461,265,501,147,83,1
120,513,238,494,268,554,210,96,1
122,444,231,441,290,537,209,96,1
108,372,225,453,239,504,205,96,1
99,336,230,449,253,459,208,97,1
87,230,210,409,274,412,229,92,1
77,259,189,372,266,364,162,76,1
70,266,170,363,266,379,158,75,1
61,236,147,321,239,420,155,68,1
58,232,124,291,229,395,150,65,1
49,219,148,236,206,424,115,60,1
42,157,133,182,200,464,119,103,1
42,121,135,149,172,456,130,117,1
42,91,132,145,230,417,128,129,1
46,88,139,121,238,424,146,147,1
48,86,96,127,227,412,157,153,1
56,84,100,161,265,309,155,140,1
60,78,101,165,274,328,150,159,1
65,74,99,179,248,361,212,180,1
63,66,96,187,239,360,270,181,1
65,61,93,176,261,360,308,183,1
65,51,83,176,249,383,328,208,1
123,52,78,185,231,389,351,206,1
139,55,73,173,209,359,397,214,1
142,54,74,204,224,385,373,219,1
154,57,89,219,211,376,354,226,1
211,67,91,205,185,448,339,213,1
194,83,128,195,193,437,320,204,1
193,87,158,206,203,453,224,190,1
198,94,171,174,180,419,195,174,1
194,92,166,170,160,431,158,158,1
130,89,168,164,173,341,148,136,1
115,96,142,179,166,336,134,117,1
96,95,111,170,159,314,124,84,1
83,99,93,176,184,315,130,78,1
77,115,92,163,186,326,129,79,1
70,118,84,166,199,321,119,79,1
69,103,80,154,203,308,140,90,1
82,104,93,154,220,340,135,88,1
85,95,79,143,217,370,148,90,1
95,83,85,150,214,340,160,97,1
97,83,84,162,187,377,160,108,1
98,126,98,177,189,462,161,120,1
93,131,105,176,181,467,163,124,1
90,136,110,210,217,471,152,128,1
80,132,161,223,224,545,142,116,1
87,158,177,231,270,537,147,117,1
87,143,207,254,297,565,144,95,1
79,132,256,264,305,560,148,90,1
79,128,268,248,271,576,144,85,1
69,131,247,241,295,641,159,88,1
55,103,239,239,277,665,165,71,1
63,79,213,206,285,601,150,70,1
221,138,150,206,289,615,153,93,1
244,165,131,212,319,627,159,96,1
250,172,188,210,313,523,156,110,1
253,170,190,191,300,508,145,113,1
253,177,188,197,338,539,142,114,1
147,162,187,185,328,599,145,94,1
102,136,197,177,319,579,132,85,1
86,123,128,164,311,603,115,62,1
76,120,142,164,310,663,118,55,1
67,127,149,178,227,624,122,55,1
47,120,136,176,248,556,112,54,1
45,124,114,170,218,561,107,51,1
47,142,118,192,235,618,114,51,1
51,172,92,184,243,590,120,46,1
49,201,86,169,277,712,125,40,1
59,223,103,264,280,765,135,45,1
70,253,108,292,305,807,143,51,1
71,267,113,284,325,774,153,54,1
80,273,114,346,338,751,157,58,1
81,259,107,341,368,649,158,62,1
96,250,109,288,372,606,151,60,1
101,245,116,400,394,602,145,61,1
105,245,112,418,369,560,130,59,1
102,250,109,375,363,637,122,63,1
109,245,112,374,309,659,119,61,1
94,255,102,363,283,634,109,58,1
89,263,105,202,216,613,103,56,1
94,287,119,204,228,623,104,61,1
114,267,137,200,209,511,98,92,1
124,290,168,214,208,484,96,96,1
125,291,177,215,194,450,96,102,1
121,298,185,223,201,371,103,108,1
115,271,190,183,174,340,100,107,1
92,280,181,184,176,333,100,81,1
66,259,150,178,181,333,143,82,1
62,243,147,174,201,389,186,75,1
67,214,125,156,196,381,199,67,1
67,217,102,148,189,369,199,66,1
75,201,97,146,182,482,199,69,1
142,198,104,138,167,496,180,62,1
145,190,99,154,181,498,157,88,1
214,251,120,144,221,510,186,123,1
244,238,119,147,220,580,218,140,1
262,267,125,165,241,500,222,149,1
235,262,135,174,244,476,222,156,1
238,260,125,158,245,489,213,144,1
179,179,108,157,220,517,172,119,1
133,168,108,152,220,472,127,98,1
91,110,99,142,209,467,123,88,1
90,94,78,133,215,488,118,72,1
75,104,81,131,182,454,115,75,1
70,111,88,145,166,402,116,66,1
69,119,104,152,172,368,137,66,1
65,134,113,134,180,396,133,54,1
69,134,113,124,167,354,123,55,1
69,121,120,132,167,366,254,57,1
94,116,115,116,199,387,270,64,1
104,106,107,128,225,400,285,77,1
139,80,100,136,216,381,304,82,1
141,81,107,136,239,401,342,100,1
142,68,113,126,239,381,266,97,1
156,65,118,137,245,370,258,97,1
171,64,135,130,230,325,280,94,1
146,56,161,139,220,332,262,96,1
139,62,202,154,220,337,258,113,1
148,94,426,243,279,356,251,114,1
133,111,550,338,289,378,258,126,1
113,124,633,471,319,419,218,128,1
110,135,708,552,323,439,213,126,1
115,138,824,626,319,457,170,104,1
103,123,747,615,277,477,181,103,1
80,117,687,607,247,495,166,84,1
68,119,641,524,218,560,158,73,1
65,152,614,506,233,580,158,69,1
54,150,474,440,214,550,133,58,1
47,146,478,433,208,508,113,55,1
50,146,488,440,202,471,95,54,1
49,133,453,439,167,367,73,53,1
45,84,459,383,200,348,71,51,1
47,133,417,363,204,370,84,48,1
69,245,424,399,212,385,113,55,1
80,328,394,423,240,507,142,69,1
88,353,428,514,264,511,159,80,1
93,381,348,542,249,495,163,83,1
98,403,447,543,293,556,167,89,1
94,350,412,535,305,565,150,91,1
89,282,401,500,310,523,129,87,1
87,267,360,405,362,555,140,84,1
99,229,338,363,376,567,140,85,1
118,168,179,345,353,506,128,82,1
120,168,177,293,337,484,128,79,1
123,163,176,235,309,404,123,76,1
120,144,165,209,235,363,96,69,1
133,143,158,165,207,338,88,79,1
124,182,163,162,192,305,87,74,1
119,191,158,171,187,307,83,69,1
141,188,130,150,212,313,83,68,1
151,260,152,162,197,300,69,74,1
145,296,166,165,186,241,65,60,1
143,308,180,173,178,229,70,66,1
143,385,227,198,186,231,71,66,1
146,545,306,251,164,232,68,69,1
151,573,345,251,202,200,69,70,1
153,624,365,283,193,236,85,68,1
169,672,390,363,221,307,105,84,1
188,688,423,385,230,372,114,85,1
176,596,450,419,233,381,116,87,1
164,549,430,426,222,400,121,84,1
155,494,434,498,227,394,111,89,1
151,442,419,461,239,408,130,78,1
136,405,374,432,221,348,126,78,1
124,390,275,374,218,328,124,69,1
132,400,244,368,202,302,126,72,1
126,385,207,232,184,310,130,74,1
99,343,176,211,154,214,98,66,1
88,266,142,200,157,203,94,67,1
87,228,131,198,155,193,93,67,1
64,183,126,181,158,224,84,58,1
59,143,94,159,160,206,74,44,1
60,119,100,124,176,222,73,49,1
59,108,240,168,187,337,80,48,1
55,93,268,175,203,356,94,54,1
62,84,339,182,206,439,99,61,1
62,93,385,212,216,529,112,64,1
60,106,405,278,231,529,111,59,1
54,100,368,326,224,491,114,57,1
57,114,361,339,225,570,126,59,1
54,130,335,380,285,518,129,58,1
68,174,295,432,284,426,134,66,1
72,168,306,443,257,490,142,71,1
73,170,274,430,276,502,153,82,1
69,163,260,460,268,427,142,80,1
69,157,216,446,216,438,143,79,1
57,134,216,414,226,440,130,74,1
59,140,152,376,216,409,122,70,1
58,141,177,418,226,543,106,58,1
61,140,181,423,226,544,99,58,1
58,133,195,447,269,521,110,65,1
56,93,186,429,258,539,119,64,1
45,70,204,452,276,543,118,66,1
42,62,202,388,252,366,121,69,1
41,63,214,359,256,394,132,68,1
41,88,213,354,208,438,128,67,1
45,98,230,411,213,502,132,67,1
55,133,279,435,208,467,136,65,1
61,151,296,451,214,491,142,66,1
64,183,339,456,228,457,150,66,1
62,183,355,424,216,433,165,63,1
60,186,384,399,213,331,176,63,1
52,188,392,362,218,324,173,61,1
59,185,382,400,225,291,168,58,1
60,161,345,388,206,270,154,55,1
60,151,320,424,200,238,128,45,1
63,150,267,402,195,224,98,42,1
70,126,179,373,177,236,94,43,1
74,136,143,305,166,252,78,42,1
90,178,109,272,164,269,80,44,1
98,218,122,201,166,258,71,46,1
97,250,140,171,163,261,69,47,1
110,276,193,205,162,246,61,46,1
106,295,230,214,154,222,62,43,1
91,279,235,218,167,208,63,39,1
92,304,259,227,180,208,67,40,1
110,326,267,222,189,187,76,44,1
99,314,244,189,181,192,77,48,1
104,299,214,173,196,193,82,53,1
112,342,215,172,181,184,82,55,1
107,300,178,148,161,179,83,53,1
94,246,164,156,142,176,74,52,1
90,239,163,151,156,157,79,52,1
91,245,183,157,124,173,79,49,1
83,177,177,171,135,205,83,55,1
85,181,169,165,156,267,105,60,1
81,184,148,159,158,297,125,71,1
85,173,149,165,181,351,136,74,1
74,142,200,195,199,350,135,76,1
79,133,269,207,203,369,153,82,1
100,116,301,206,217,419,150,101,1
108,101,404,243,249,459,170,122,1
116,99,419,271,285,511,177,124,1
117,94,432,273,310,593,228,130,1
119,105,409,285,319,654,244,128,1
98,104,416,337,367,706,260,115,1
94,105,387,334,352,725,281,94,1
88,110,374,361,329,805,308,105,1
85,113,403,346,329,834,289,96,1
74,98,460,338,358,913,280,92,1
78,101,462,333,346,956,288,102,1
69,102,434,427,358,951,259,99,1
62,96,440,436,347,915,231,85,1
71,97,410,521,342,881,215,96,1
76,89,353,552,317,797,203,94,1
86,96,336,549,271,763,183,95,1
88,98,311,486,253,775,174,90,1
92,159,344,512,250,725,171,87,1
100,248,329,457,256,795,180,83,1
117,328,313,471,267,778,175,88,1
115,408,297,500,291,803,173,77,1
133,452,398,528,337,888,190,86,1
144,525,510,528,351,989,213,120,1
147,545,500,563,353,939,225,123,1
157,561,518,614,367,915,233,124,1
176,581,569,613,389,833,245,129,1
196,653,537,596,391,757,244,133,1
211,665,415,599,383,616,212,103,1
215,654,409,555,387,623,191,99,1
219,766,410,460,379,635,181,105,1
255,815,380,449,342,606,148,114,1
282,844,357,457,296,519,121,117,1
288,839,343,398,290,589,125,122,1
302,905,385,393,243,508,119,127,1
300,800,433,441,211,511,120,128,1
289,764,451,437,185,490,130,132,1
255,789,479,427,220,495,129,124,1
236,800,518,447,214,339,122,121,1
253,911,509,444,228,356,145,123,1
255,938,463,383,216,297,139,118,1
236,970,421,347,216,310,124,100,1
230,932,365,313,163,292,129,103,1
236,894,304,257,158,323,128,109,1
204,726,261,258,156,328,124,117,1
196,705,238,258,138,343,131,117,1
175,637,232,247,167,366,139,111,1
162,525,246,243,166,414,181,108,1
141,493,255,258,181,478,189,101,1
111,427,309,268,171,483,198,79,1
91,351,343,319,226,588,236,101,1
88,225,362,412,234,606,276,118,1
90,200,416,423,236,593,262,119,1
90,199,414,433,228,526,271,120,1
88,151,375,444,228,517,261,122,1
94,163,347,417,212,446,249,111,1
91,154,321,412,200,412,205,91,1
86,153,248,456,205,403,190,91,1
90,138,245,461,197,400,180,90,1
111,149,254,494,220,372,174,89,1
115,142,274,650,199,315,147,77,1
182,188,366,718,200,276,166,123,1
189,209,389,742,220,253,188,133,1
201,259,404,778,284,329,200,148,1
201,255,433,800,310,321,208,158,1
200,254,426,722,342,302,247,183,1
162,266,381,705,343,332,243,160,1
186,279,374,733,354,418,234,175,1
176,232,358,730,333,399,238,173,1
169,235,321,684,327,548,252,174,1
168,236,296,680,338,673,262,169,1
166,188,242,621,338,683,251,171,1
153,165,180,526,350,663,262,154,1
152,180,200,515,337,649,247,144,1
176,197,214,509,305,555,226,134,1
198,227,213,449,254,456,169,100,1
206,277,240,389,266,431,172,98,1
189,279,254,385,221,386,148,92,1
198,282,223,311,225,383,135,89,1
194,295,216,306,235,366,123,84,1
165,292,224,291,234,276,106,85,1
151,299,226,295,214,259,88,75,1
158,377,222,273,217,237,66,61,1
150,423,226,258,201,221,71,52,1
131,420,236,231,189,176,69,53,1
140,414,291,226,176,166,67,54,1
154,407,312,221,159,143,69,61,1
144,335,323,220,135,139,68,61,1
138,284,335,209,118,109,59,68,1
137,288,349,196,100,85,59,75,1
132,280,310,199,98,53,57,79,1
137,244,278,174,96,55,62,104,1
143,269,265,177,87,50,64,111,1
147,309,244,185,88,51,65,108,1
163,336,244,175,85,45,66,104,1
287,556,287,173,98,117,77,116,1
406,723,377,230,101,141,86,119,1
437,843,408,321,130,166,99,121,1
447,857,431,360,140,173,114,124,1
449,850,406,364,144,214,123,126,1
385,728,372,377,150,235,168,120,1
245,570,285,356,168,263,179,99,1
183,345,233,298,158,266,196,110,1
154,250,198,307,162,295,197,111,1
126,205,198,319,168,276,212,117,1
111,188,197,341,163,254,189,110,1
94,184,174,382,160,228,186,103,1
89,204,271,453,173,218,185,88,1
118,218,291,466,195,205,186,87,1
128,245,355,566,216,206,169,80,1
141,254,367,570,233,221,159,83,1
156,233,364,618,240,211,150,93,1
152,212,295,618,231,226,131,84,1
133,195,269,586,208,206,120,80,1
117,163,164,480,189,205,114,74,1
104,144,120,484,176,179,108,70,1
76,129,109,409,171,203,100,52,1
88,123,105,310,167,185,80,53,1
95,136,91,331,175,189,82,51,1
103,145,109,359,181,220,104,56,1
99,188,121,330,188,239,109,53,1
102,248,154,322,174,241,111,54,1
103,267,193,336,186,237,112,56,1
91,266,200,328,185,226,105,52,1
89,267,206,296,204,183,74,43,1
103,243,234,286,198,138,53,42,1
143,192,241,241,188,68,43,51,1
135,179,234,212,170,49,34,46,1
141,195,278,184,156,44,31,45,1
141,208,281,220,112,43,39,51,1
135,203,259,206,107,42,42,69,1
89,196,284,206,108,46,43,68,1
92,183,296,230,121,100,76,75,1
103,169,269,225,146,179,115,95,1
106,164,264,207,168,281,158,106,1
106,211,284,285,237,494,242,129,1
117,226,273,343,316,607,349,150,1
134,235,329,394,461,667,505,171,1
144,232,396,465,485,780,528,183,1
159,229,617,505,528,783,534,214,1
165,189,659,491,558,719,544,205,1
165,182,771,561,575,722,541,211,1
158,179,759,536,495,718,409,194,1
137,162,761,506,506,679,391,193,1
126,153,675,496,482,725,406,179,1
113,159,660,480,446,769,366,185,1
129,164,609,400,407,730,308,184,1
121,169,623,407,417,728,312,193,1
156,203,664,555,475,789,335,200,1
214,286,623,616,556,848,322,209,1
288,382,645,655,569,927,387,272,1
298,409,597,704,595,929,389,273,1
317,480,615,753,579,975,411,301,1
309,526,638,662,538,910,397,301,1
268,500,696,611,436,803,380,284,1
187,446,665,610,399,668,308,211,1
155,418,627,555,370,700,313,196,1
113,337,569,460,362,593,274,149,1
87,251,432,416,331,638,268,130,1
84,226,242,381,318,656,262,120,1
86,206,158,300,327,628,251,129,1
86,247,142,220,276,527,196,120,1
76,261,141,216,258,530,182,101,1
71,251,112,220,248,394,151,79,1
74,282,190,211,251,396,139,73,1
77,364,313,269,214,357,134,51,1
91,382,385,284,207,392,136,56,1
100,379,420,324,204,423,144,59,1
106,411,458,349,172,407,124,61,1
100,389,439,349,167,363,119,58,1
102,312,371,335,196,408,124,58,1
85,319,304,337,196,395,119,48,1
82,324,257,296,192,323,92,46,1
79,283,178,247,176,298,82,39,1
79,289,150,216,170,265,77,38,1
71,288,134,166,179,171,55,35,1
69,204,136,233,186,135,63,35,1
63,194,182,248,204,144,67,37,1
79,215,203,266,206,150,70,36,1
89,250,265,318,223,182,76,39,1
85,251,260,327,187,172,75,39,1
86,260,250,279,175,170,70,40,1
90,252,220,277,169,169,66,40,1
75,260,203,289,176,163,61,42,1
71,230,127,326,151,127,55,43,1
78,236,153,352,164,129,57,45,1
81,231,154,392,175,108,50,44,1
81,247,175,408,159,91,53,42,1
97,269,196,397,150,138,66,48,1
105,281,199,359,210,197,70,48,1
102,276,180,336,226,286,82,49,1
96,293,181,274,236,363,104,50,1
93,301,154,273,249,391,117,53,1
75,268,136,289,279,438,126,51,1
59,240,126,297,266,438,128,50,1
56,227,130,292,247,404,124,49,1
56,200,125,289,230,336,106,44,1
53,143,120,254,219,305,86,37,1
49,100,110,251,187,210,63,31,1
49,105,99,207,159,168,52,29,1
53,105,96,209,152,128,40,26,1
51,124,96,213,150,133,38,27,1
50,149,99,221,174,149,48,31,1
53,173,156,196,192,174,71,33,1
64,189,208,199,187,179,78,37,1
58,210,215,199,189,185,80,37,1
76,211,226,215,194,198,87,45,1
77,201,231,232,191,201,85,44,1
83,197,204,236,165,193,70,47,1
71,209,161,234,151,180,62,44,1
77,190,149,217,160,286,94,46,1
66,173,131,214,171,350,100,40,1
66,168,125,193,162,366,106,42,1
83,157,109,232,165,367,103,40,1
85,110,120,235,188,388,105,41,1
83,102,119,254,178,338,87,39,1
81,110,123,272,168,324,87,39,1
82,117,115,284,168,306,84,38,1
61,125,132,287,164,305,85,36,1
65,133,104,281,149,305,95,39,1
72,139,109,303,196,331,103,53,1
73,148,98,284,207,295,98,53,1
78,177,99,282,219,320,120,59,1
94,191,109,295,264,365,128,65,1
97,218,124,343,287,442,136,69,1
96,240,120,394,292,433,140,66,1
112,261,124,578,391,567,148,67,1
117,362,148,725,451,608,148,70,1
111,372,130,748,454,596,149,73,1
110,357,131,868,497,687,148,71,1
111,415,137,890,503,717,146,66,1
102,417,145,863,452,680,137,65,1
99,464,140,824,424,755,134,63,1
116,494,159,906,444,796,146,62,1
116,502,165,843,405,794,185,74,1
161,510,174,830,382,798,189,84,1
168,513,182,802,403,901,234,99,1
179,428,202,776,459,950,298,117,1
181,418,196,830,462,984,297,121,1
183,431,194,883,526,910,276,117,1
148,389,191,858,532,927,275,112,1
142,413,180,849,517,787,244,103,1
126,378,184,812,477,638,203,84,1
100,395,178,660,444,546,195,71,1
96,391,178,522,363,537,208,67,1
96,388,199,517,403,537,223,66,1
106,365,195,473,375,512,216,62,1
108,374,214,458,318,476,171,59,1
115,329,210,401,305,462,175,60,1
120,332,224,362,275,534,160,63,1
117,311,219,419,189,469,129,63,1
97,285,227,395,205,482,136,65,1
92,295,351,402,225,520,151,67,1
81,271,367,401,218,508,147,68,1
86,270,366,393,217,417,143,64,1
91,268,356,297,204,382,137,62,1
110,265,361,307,209,384,136,65,1
112,239,195,311,197,335,112,61,1
118,251,160,310,216,323,103,60,1
115,282,134,295,217,342,91,57,1
117,325,130,333,233,337,96,59,1
122,335,111,330,220,353,102,56,1
122,336,104,344,224,342,100,51,1
119,333,105,319,199,336,98,49,1
118,280,104,320,192,291,94,49,1
120,232,92,291,189,320,96,48,1
100,219,89,288,178,294,88,42,1
94,224,99,232,166,308,93,42,1
100,232,96,230,163,384,104,41,1
93,229,96,250,175,417,109,41,1
79,198,98,231,173,420,107,43,1
76,186,90,230,170,439,100,37,1
87,184,80,226,152,418,92,37,1
88,190,79,226,152,370,81,34,1
102,237,86,222,139,350,76,39,1
108,277,91,218,128,325,75,38,1
111,302,133,203,123,348,85,44,1
106,330,142,199,141,353,91,44,1
100,390,255,203,153,398,97,43,1
108,376,267,169,146,379,93,40,1
104,382,320,233,156,395,102,45,1
109,408,323,236,186,373,100,47,1
109,390,393,245,170,389,97,46,1
108,312,339,247,183,335,96,50,1
82,297,333,251,186,368,98,50,1
86,294,285,190,187,369,87,42,1
79,236,265,174,162,331,75,39,1
84,241,144,169,186,312,77,41,1
79,297,126,160,190,322,71,37,1
81,301,105,156,189,282,67,36,1
65,269,91,183,172,263,65,34,1
73,309,92,178,173,293,68,37,1
69,300,74,169,153,286,64,37,1
66,259,74,185,120,254,66,39,1
69,260,72,194,141,277,69,38,1
74,270,85,173,170,260,69,38,1
72,249,82,179,185,227,64,35,1
77,298,88,182,196,246,65,43,1
80,302,87,167,200,267,67,42,1
78,297,86,161,193,267,64,43,1
83,317,79,176,182,277,67,45,1
87,294,85,186,176,296,79,48,1
82,264,89,200,165,309,77,43,1
83,255,90,277,185,339,83,45,1
83,253,90,283,179,336,79,45,1
77,230,82,272,181,348,76,42,1
62,232,75,283,170,362,68,37,1
62,201,60,293,174,369,72,35,1
57,186,52,227,152,358,76,32,1
68,255,52,240,156,353,76,35,1
65,241,54,277,180,366,81,35,1
85,294,63,286,186,363,77,36,1
86,310,64,319,196,356,75,35,1
94,327,63,317,196,325,60,35,1
92,309,61,389,195,314,63,35,1
96,308,63,404,195,288,57,37,1
88,302,76,491,236,250,57,37,1
113,311,92,534,246,222,54,43,1
123,322,100,549,257,280,61,55,1
122,305,103,538,304,305,61,55,1
119,348,110,528,286,294,64,54,1
119,314,98,480,256,372,67,54,1
97,299,83,418,245,395,73,49,1
77,293,79,444,245,378,72,39,1
83,329,78,414,199,405,70,37,1
93,305,76,415,200,425,72,39,1
90,334,77,361,193,446,81,48,1
88,360,73,362,220,500,82,53,1
90,375,71,322,234,585,91,59,1
83,383,93,295,235,582,97,60,1
81,385,104,338,253,611,97,60,1
83,361,113,350,276,588,89,54,1
81,362,118,375,268,647,100,54,1
78,381,121,394,261,589,94,48,1
77,376,103,396,262,570,90,47,1
77,374,94,364,252,525,85,47,1
73,387,79,369,233,526,86,44,1
72,363,73,358,219,409,68,37,1
84,320,63,328,217,389,68,39,1
86,283,72,356,209,400,86,48,1
90,279,73,328,204,411,89,53,1
98,294,77,311,237,485,89,55,1
103,309,78,283,254,499,89,58,1
112,373,91,301,277,523,86,59,1
109,372,90,407,295,534,74,56,1
116,394,92,479,374,597,84,58,1
108,386,91,514,404,647,106,58,1
115,458,114,509,414,675,111,59,1
106,428,113,511,409,675,115,58,1
109,457,113,414,434,680,112,55,1
101,472,107,378,382,658,109,54,1
125,476,108,319,329,543,94,54,1
116,403,98,306,320,584,107,55,1
118,381,110,279,305,580,113,54,1
122,342,107,252,281,621,116,54,1
118,299,117,141,286,706,140,55,1
97,260,118,144,314,844,162,55,1
95,253,108,133,303,785,153,54,1
89,256,93,102,319,769,145,52,1
86,275,91,102,287,727,141,52,1
82,273,81,111,272,623,117,46,1
83,305,74,140,233,389,78,44,1
85,295,75,150,236,401,74,42,1
85,292,78,181,215,416,85,47,1
85,299,86,207,247,397,95,52,1
85,341,83,205,252,399,107,57,1
82,337,89,182,249,404,114,57,1
79,336,88,201,232,367,111,55,1
72,329,82,179,226,355,107,54,1
78,338,75,154,179,346,100,48,1
83,294,71,150,170,329,96,46,1
76,263,68,168,194,339,91,45,1
92,280,62,135,195,333,101,53,1
101,289,59,165,189,336,107,54,1
98,252,57,158,192,334,109,58,1
105,249,65,160,196,345,108,57,1
108,282,67,178,195,366,121,59,1
93,263,66,194,201,356,120,54,1
86,283,71,184,198,341,113,51,1
76,293,73,187,223,363,114,47,1
77,347,80,212,298,397,129,46,1
74,333,76,182,310,370,127,43,1
82,350,80,174,315,373,123,45,1
82,322,77,176,338,446,136,47,1
85,345,78,269,354,534,151,53,1
90,322,72,274,294,496,141,61,1
90,332,76,357,280,552,130,62,1
100,365,86,379,279,609,130,60,1
97,365,88,489,265,582,118,56,1
94,334,85,481,234,500,93,49,1
80,297,79,553,251,535,79,40,1
100,298,80,545,243,492,81,37,1
94,258,67,539,251,446,85,40,1
102,311,66,444,244,424,82,43,1
111,357,76,421,234,418,80,45,1
117,380,80,315,208,458,91,40,1
105,385,75,234,209,454,91,41,1
97,382,77,242,189,465,86,36,1
109,345,81,235,185,526,92,37,1
99,316,71,204,197,568,100,40,1
94,304,65,178,184,497,98,45,1
96,281,63,179,163,471,95,47,1
105,283,61,119,157,420,97,53,1
88,278,64,97,139,388,96,52,1
96,256,67,101,120,341,94,52,1
91,231,65,99,113,332,84,48,1
92,225,65,102,113,398,87,48,1
82,262,69,122,131,406,93,44,1
84,300,69,138,173,380,98,50,1
87,317,74,147,176,444,128,54,1
97,318,75,191,212,534,132,53,1
97,378,77,230,241,530,134,54,1
120,379,87,233,251,584,134,66,1
125,416,97,291,270,655,148,73,1
125,419,96,329,306,673,144,77,1
121,416,97,333,283,610,147,82,1
119,367,99,327,262,601,147,85,1
96,349,92,343,270,561,145,77,1
86,273,82,306,236,462,127,68,1
75,250,77,284,197,373,108,61,1
94,270,77,289,221,373,96,56,1
92,265,79,288,255,440,95,49,1
94,225,80,273,260,449,92,47,1
105,218,71,282,260,455,83,45,1
109,252,73,267,256,441,89,42,1
98,272,71,239,238,448,91,40,1
100,280,61,230,220,370,90,43,1
98,284,50,223,179,327,85,41,1
88,300,54,227,207,413,115,48,1
83,259,48,215,207,405,100,50,1
84,221,52,203,207,389,98,51,1
81,253,60,191,186,365,105,49,1
83,248,61,187,197,402,109,54,1
77,233,61,173,165,297,79,46,1
81,258,60,175,160,302,82,47,1
66,249,57,188,155,304,81,42,1
65,210,52,196,160,315,71,42,1
69,225,54,213,163,288,74,39,1
74,226,51,207,168,282,76,40,1
76,214,54,202,173,260,68,38,1
81,233,67,194,171,273,70,39,1
82,239,66,194,183,339,92,43,1
75,229,68,181,177,329,90,42,1
74,241,71,154,164,320,94,45,1
68,227,77,155,154,353,100,46,1
65,311,69,151,149,335,101,46,1
63,309,71,176,146,292,82,47,1
63,317,70,168,136,300,81,48,1
61,310,66,160,133,306,73,43,1
80,341,64,207,163,328,67,43,1
79,252,63,257,186,356,69,41,1
79,265,64,244,181,333,63,35,1
77,244,61,243,185,365,59,34,1
76,274,67,262,192,363,67,37,1
69,300,75,264,180,312,66,35,1
68,298,77,244,174,282,64,38,1
69,304,75,249,182,280,64,40,1
71,359,74,256,177,223,73,42,1
80,338,68,258,180,216,68,39,1
69,300,52,247,172,285,69,43,1
70,305,50,237,167,299,69,42,1
67,320,56,216,174,299,67,43,1
79,262,59,229,229,305,59,40,1
76,249,68,230,226,300,59,40,1
83,240,70,223,234,250,58,37,1
82,236,68,223,245,237,54,34,1
87,186,61,229,235,214,55,30,1
83,209,60,220,192,194,53,31,1
77,244,50,215,190,196,51,30,1
68,259,53,227,193,197,55,31,1
96,280,57,247,196,220,57,34,1
93,299,56,249,197,239,55,36,1
95,300,59,246,202,267,60,39,1
96,314,66,249,225,324,72,41,1
97,318,61,219,227,331,73,41,1
84,307,58,187,222,338,82,43,1
87,360,65,204,216,355,85,48,1
83,388,69,206,229,411,90,52,1
86,356,67,206,219,390,85,51,1
92,345,76,249,211,405,86,53,1
87,336,76,263,250,460,85,53,1
89,319,74,255,250,444,92,51,1
95,295,71,264,266,413,86,45,1
93,303,67,267,254,431,93,49,1
94,321,62,250,273,418,94,50,1
88,328,62,281,240,389,101,48,1
85,309,64,284,241,404,95,46,1
87,289,64,272,221,393,95,51,1
92,290,66,291,247,394,87,49,1
86,281,62,282,223,372,80,47,1
86,279,59,240,217,357,71,48,1
94,250,64,232,220,353,73,49,1
85,255,66,250,198,321,73,45,1
82,297,64,232,162,275,73,44,1
85,305,73,216,169,320,74,41,1
86,346,75,232,163,273,73,42,1
81,358,84,251,158,286,70,40,1
86,365,80,236,175,404,71,40,1
84,335,79,256,195,435,73,40,1
89,365,78,277,216,444,83,44,1
91,355,104,274,257,509,111,45,1
88,340,91,271,298,546,137,57,1
84,374,96,281,320,521,165,70,1
85,378,100,247,328,514,171,73,1
89,375,105,245,350,484,167,76,1
110,373,103,270,329,444,148,79,1
108,370,115,287,297,433,127,74,1
103,323,111,301,280,383,85,61,1
100,310,117,298,255,366,65,58,1
93,263,114,311,223,442,64,52,1
62,232,95,293,250,426,68,44,1
71,226,83,270,251,358,62,38,1
78,237,88,269,247,346,60,37,1
82,235,80,314,277,348,76,50,1
90,251,81,288,268,270,71,55,1
91,283,82,318,244,331,66,54,1
87,289,89,332,271,362,67,59,1
86,310,84,392,284,386,78,61,1
82,311,86,366,286,415,82,53,1
66,302,80,395,296,422,87,49,1
63,290,75,364,293,380,89,50,1
57,313,73,351,265,352,87,46,1
62,269,71,274,257,327,78,43,1
61,282,67,260,230,266,61,39,1
64,272,66,225,212,220,56,36,1
68,261,65,225,203,203,48,33,1
77,245,59,224,216,202,49,31,1
89,292,60,215,202,190,57,35,1
89,284,54,225,209,220,63,33,1
86,349,54,232,204,271,62,34,1
82,342,55,241,227,255,62,36,1
76,401,52,235,214,266,60,34,1
51,409,52,234,203,284,56,31,1
55,403,54,229,211,321,61,34,1
54,347,54,211,213,289,65,34,1
59,359,54,208,187,301,69,32,1
64,304,51,237,229,328,79,35,1
72,336,48,235,250,325,79,36,1
74,341,45,248,237,341,78,39,1
76,356,57,278,245,359,77,39,1
75,355,57,281,262,363,76,41,1
73,360,58,280,239,342,72,40,1
70,338,63,348,244,347,76,43,1
71,342,63,345,271,284,71,41,1
72,321,52,343,275,257,65,40,1
81,332,49,338,275,239,68,41,1
78,312,52,321,262,245,61,40,1
85,260,51,246,238,230,54,36,1
90,279,51,268,228,220,50,35,1
93,308,52,266,200,211,56,36,1
90,303,56,264,176,212,52,34,1
88,302,55,266,194,210,61,34,1
84,300,49,261,190,187,61,35,1
76,301,54,243,165,187,59,33,1
74,330,59,232,188,200,61,36,1
73,323,61,234,190,207,61,35,1
82,320,64,265,170,210,59,36,1
83,339,71,281,184,224,63,39,1
108,366,70,318,203,251,65,43,1
119,344,71,307,208,285,73,46,1
116,355,69,308,237,331,78,47,1
114,351,69,345,248,334,76,47,1
112,337,70,337,300,393,80,48,1
92,301,69,314,301,393,81,46,1
74,288,64,324,301,380,75,45,1
76,266,64,311,296,359,73,45,1
77,253,64,273,297,354,80,44,1
77,270,62,281,265,297,80,45,1
80,273,68,269,253,284,77,45,1
83,288,73,306,253,289,79,44,1
86,278,77,309,250,260,76,46,1
86,305,75,311,236,241,68,45,1
80,300,71,308,247,268,67,42,1
77,320,61,318,255,290,75,40,1
77,288,55,292,262,262,68,39,1
73,296,47,305,279,266,70,37,1
74,273,41,271,299,283,68,39,1
81,317,45,278,272,340,76,43,1
81,305,43,252,266,316,71,42,1
85,337,44,236,274,339,77,46,1
83,332,48,224,237,366,84,46,1
79,341,53,218,208,355,87,46,1
74,326,50,226,200,293,85,44,1
70,320,55,263,224,289,89,49,1
59,322,57,267,212,273,87,46,1
71,328,58,264,226,247,83,47,1
71,310,59,267,225,247,84,47,1
71,289,60,236,236,225,76,47,1
69,277,61,219,231,294,82,43,1
69,237,60,193,215,287,81,42,1
61,240,58,191,194,267,74,39,1
61,271,54,176,190,264,71,40,1
68,297,53,233,179,256,69,36,1
65,292,50,212,181,228,61,32,1
63,295,49,247,199,248,65,33,1
74,294,54,271,207,261,70,38,1
76,288,53,278,215,263,72,39,1
84,245,53,250,234,254,78,40,1
119,277,75,265,222,343,114,60,1
126,285,77,245,209,345,117,61,1
123,319,71,227,208,341,117,61,1
125,335,75,227,219,390,119,61,1
118,337,74,220,197,405,120,61,1
89,321,58,196,186,301,82,44,1
82,319,53,208,179,327,82,40,1
76,285,53,199,178,349,78,35,1
72,297,51,210,175,327,78,35,1
73,307,53,214,175,331,78,34,1
76,301,51,223,185,346,80,32,1
89,327,60,213,205,323,79,43,1
89,334,67,204,212,341,86,47,1
87,329,66,190,200,364,86,48,1
98,337,67,245,228,448,95,53,1
91,340,65,255,224,449,96,52,1
81,345,57,258,217,449,94,46,1
81,345,53,276,226,419,89,40,1
83,312,54,285,236,401,88,42,1
67,310,55,241,218,324,80,41,1
67,337,57,220,221,333,80,40,1
71,343,60,209,204,311,72,45,1
76,340,63,188,202,379,80,45,1
80,352,62,175,213,355,74,40,1
77,346,66,155,229,406,86,40,1
118,339,61,151,226,398,89,47,1
114,304,58,148,227,404,92,42,1
120,328,56,141,227,345,88,45,1
121,319,56,136,214,376,89,45,1
122,313,52,136,195,278,73,44,1
93,278,50,141,225,274,65,40,1
93,268,52,137,231,318,66,39,1
88,271,49,138,228,313,65,41,1
85,291,48,129,228,279,77,47,1
83,323,50,120,221,291,76,46,1
77,316,52,107,169,284,80,46,1
85,351,52,97,155,230,82,48,1
85,336,52,110,178,225,79,44,1
85,334,54,120,164,229,71,40,1
89,329,52,147,207,281,71,40,1
84,348,54,197,214,283,65,38,1
83,326,82,252,250,306,63,36,1
80,338,94,265,279,386,83,43,1
79,333,103,272,310,461,83,44,1
74,346,104,271,300,468,90,46,1
78,358,110,248,317,494,100,50,1
80,356,89,208,294,509,104,53,1
88,372,79,201,245,472,91,46,1
90,383,68,227,233,418,88,47,1
106,354,68,211,218,416,83,50,1
120,357,67,215,239,413,75,53,1
118,361,72,220,236,405,70,50,1
114,369,74,213,235,403,73,51,1
111,346,70,198,224,423,80,53,1
105,350,75,242,251,418,80,49,1
92,386,70,273,205,401,82,46,1
93,374,70,270,216,394,79,50,1
95,413,66,291,220,446,77,50,1
99,444,70,301,237,441,77,50,1
96,430,66,284,212,408,77,52,1
91,383,70,255,244,521,102,50,1
93,380,71,285,272,555,106,46,1
96,278,74,279,283,521,108,49,1
93,231,76,263,257,520,105,46,1
89,225,73,253,259,542,107,47,1
92,243,68,245,251,447,81,44,1
92,247,61,235,212,398,77,44,1
85,251,66,237,197,394,80,37,1
85,244,60,230,191,355,81,36,1
90,276,58,240,171,353,86,44,1
96,250,56,239,154,347,90,50,1
89,244,62,222,167,378,89,49,1
84,233,53,209,154,368,82,50,1
80,247,54,216,181,381,80,49,1
77,233,55,233,201,388,76,39,1
82,255,60,269,227,364,74,33,1
90,269,60,265,216,324,75,38,1
91,286,62,289,234,355,85,40,1
108,308,60,303,233,341,87,45,1
104,299,62,276,214,304,81,44,1
93,277,58,251,183,341,76,43,1
91,281,56,258,199,382,85,41,1
94,287,55,223,185,339,77,40,1
74,239,61,189,172,345,79,37,1
104,276,64,190,190,441,92,45,1
104,288,69,177,185,417,102,49,1
101,273,67,163,178,368,92,49,1
98,303,72,199,197,412,92,49,1
102,324,66,206,192,424,91,48,1
71,324,64,204,187,306,76,44,1
77,360,60,231,206,311,68,38,1
76,362,71,230,196,366,71,39,1
92,335,67,198,172,361,82,47,1
94,333,70,188,189,357,79,47,1
94,317,69,215,220,422,81,46,1
93,260,74,179,195,414,77,48,1
98,293,63,183,226,413,86,52,1
87,273,62,192,231,390,83,50,1
84,267,64,194,253,412,89,52,1
85,273,64,175,232,368,88,51,1
89,303,63,214,237,375,87,50,1
85,269,65,201,213,328,78,45,1
80,284,63,200,213,320,66,39,1
80,307,60,260,180,273,52,38,1
81,294,59,277,200,264,56,36,1
74,260,58,257,193,262,61,38,1
72,262,58,259,192,259,61,38,1
86,260,58,274,193,254,65,37,1
87,230,58,229,210,298,77,36,1
88,251,58,210,198,274,76,39,1
85,260,65,211,222,264,72,38,1
84,256,68,256,222,285,76,35,1
80,244,69,242,220,369,85,39,1
78,254,69,236,199,333,74,38,1
76,239,72,237,181,372,80,40,1
80,248,65,251,191,399,83,37,1
82,278,61,249,199,385,78,40,1
79,293,66,239,194,293,64,37,1
77,298,70,235,194,319,76,43,1
78,297,68,232,220,321,92,43,1
81,327,72,233,194,303,107,55,1
78,348,72,181,209,294,111,55,1
82,356,68,185,213,321,121,56,1
80,343,68,186,223,310,114,54,1
76,344,65,180,198,270,95,50,1
71,308,51,164,214,255,78,42,1
72,266,51,177,190,255,81,42,1
62,241,60,174,195,226,74,45,1
60,229,56,169,177,227,79,44,1
71,240,57,172,181,253,83,45,1
70,257,68,158,170,311,111,55,1
68,262,70,137,169,321,108,53,1
74,280,63,138,163,318,103,52,1
78,292,66,159,177,354,107,51,1
81,274,66,170,177,353,106,51,1
85,274,56,166,166,301,79,39,1
86,276,57,168,164,295,77,39,1
87,287,63,190,178,312,86,40,1
88,283,64,189,171,283,86,43,1
84,272,65,184,169,266,88,43,1
77,267,70,192,177,257,80,41,1
95,270,65,202,203,264,79,43,1
88,226,59,200,205,295,92,44,1
83,231,51,188,203,274,85,41,1
81,250,53,185,200,279,80,39,1
81,230,59,165,241,334,102,45,1
60,199,61,167,242,326,105,44,1
62,216,57,146,233,321,93,42,1
63,223,57,146,228,316,91,41,1
66,224,65,144,226,326,96,44,1
66,229,63,165,177,281,75,38,1
68,237,65,178,144,302,71,39,1
78,237,69,179,131,301,62,40,1
79,236,69,178,165,310,68,40,1
74,248,63,181,172,316,75,40,1
75,258,52,179,165,323,77,40,1
75,261,49,161,207,306,82,43,1
58,264,48,156,212,281,80,40,1
73,261,59,162,199,316,89,46,1
79,272,58,178,216,292,79,43,1
83,270,61,185,229,284,79,45,1
84,280,61,184,222,294,75,42,1
88,291,69,209,237,287,79,43,1
79,286,65,202,231,220,61,38,1
76,262,63,199,232,226,61,37,1
77,252,61,185,233,229,64,37,1
75,244,67,213,234,226,71,37,1
78,243,68,246,229,298,79,38,1
74,237,68,253,236,318,86,39,1
73,239,69,252,242,349,91,41,1
71,248,68,263,251,373,87,38,1
72,254,70,245,227,390,90,43,1
63,242,62,187,214,345,83,42,1
69,250,65,183,223,354,81,42,1
69,232,64,158,197,315,77,40,1
65,223,68,150,175,289,78,40,1
60,278,63,142,212,287,73,35,1
60,270,60,154,225,268,71,33,1
53,277,48,146,202,236,67,30,1
50,305,53,172,264,267,82,32,1
53,312,51,170,265,253,81,32,1
51,267,50,202,235,226,80,31,1
55,275,54,192,219,233,85,32,1
56,303,58,199,221,297,87,33,1
58,287,60,180,155,269,74,32,1
76,286,65,214,181,351,79,39,1
76,274,65,180,215,348,79,39,1
84,259,63,186,231,365,75,39,1
86,203,62,176,231,329,74,39,1
88,222,64,195,217,335,73,41,1
71,215,56,161,193,297,71,36,1
71,224,58,176,157,317,69,35,1
70,262,62,193,135,321,68,38,1
65,281,62,209,143,324,67,38,1
64,274,55,198,146,321,63,36,1
68,280,65,200,154,345,67,36,1
69,291,62,196,174,349,68,38,1
72,287,61,185,200,347,66,37,1
76,273,60,179,209,349,66,38,1
84,272,66,175,211,370,76,42,1
83,277,56,176,210,337,71,39,1
87,263,57,166,214,310,70,39,1
79,244,54,151,200,292,68,37,1
78,237,54,164,192,299,76,40,1
74,248,54,170,200,274,69,39,1
75,227,55,158,198,272,68,44,1
71,273,54,180,214,290,68,46,1
74,262,53,192,221,284,72,45,1
80,290,59,183,261,285,67,44,1
74,268,53,210,271,308,69,42,1
68,265,54,231,281,314,72,37,1
74,214,55,236,278,342,92,44,1
76,217,60,237,268,345,96,49,1
64,182,53,250,245,338,94,45,1
77,219,50,245,268,320,94,52,1
83,237,52,233,260,342,102,52,1
80,271,53,221,229,294,84,46,1
77,268,55,225,231,289,76,40,1
75,261,62,236,220,325,82,41,1
63,223,62,213,181,326,85,33,1
56,200,66,234,185,257,71,33,1
46,149,125,227,204,246,70,33,1
61,163,183,235,224,281,76,34,1
70,177,193,216,215,239,80,36,1
70,185,219,229,213,234,73,37,1
70,213,221,211,213,326,77,40,1
73,214,205,218,214,372,78,39,1
59,209,208,201,200,379,79,39,1
59,232,203,201,215,385,81,40,1
71,261,200,213,226,412,91,41,1
78,256,219,209,247,368,90,41,1
77,245,214,239,235,346,95,42,1
74,254,167,237,236,322,93,42,1
73,238,166,234,226,309,81,39,1
65,210,161,231,205,293,72,39,1
61,238,135,218,171,330,82,37,1
59,237,147,182,199,313,77,34,1
68,226,156,185,195,295,71,35,1
60,217,160,185,201,284,75,36,1
57,219,190,171,201,275,71,34,1
61,238,200,170,196,208,58,36,1
68,276,210,183,179,218,59,38,1
68,284,213,174,182,228,68,36,1
80,280,208,166,166,249,67,40,1
78,286,209,176,198,243,69,39,1
70,234,219,211,199,254,79,38,1
69,178,251,205,195,255,77,37,1
62,177,241,232,192,298,79,37,1
52,173,244,237,228,293,81,35,1
60,175,208,220,219,306,80,36,1
61,168,189,207,226,317,72,38,1
61,176,142,214,220,305,71,40,1
74,164,147,190,221,299,81,41,1
74,171,164,205,189,328,90,42,1
68,144,162,234,177,311,91,42,1
73,144,157,227,189,306,89,38,1
70,170,142,218,185,342,88,36,1
61,223,151,235,185,311,75,36,1
65,243,150,215,237,287,68,39,1
71,270,155,203,230,293,64,36,1
67,292,182,229,246,306,90,40,1
64,278,173,238,263,309,99,41,1
64,287,168,252,267,337,101,41,1
58,275,147,261,218,350,102,37,1
55,268,140,258,236,358,107,38,1
56,257,111,244,207,348,89,33,1
61,264,107,265,221,339,85,29,1
58,225,95,242,228,321,83,33,1
58,214,98,272,239,291,75,32,1
56,197,96,285,218,285,84,37,1
53,181,81,285,226,288,81,39,1
46,162,75,266,209,274,79,42,1
49,154,70,269,209,261,74,39,1
48,154,63,248,192,296,90,41,1
46,143,67,231,198,379,83,38,1
49,142,68,212,191,402,85,36,1
48,149,70,231,169,432,91,33,1
64,183,72,230,146,454,98,37,1
70,195,70,212,149,434,83,37,1
78,197,77,215,145,370,80,40,1
87,223,74,217,178,328,84,41,1
88,235,83,207,186,287,74,41,1
78,205,78,211,188,260,69,37,1
81,215,84,230,208,270,77,36,1
76,233,70,213,212,252,77,34,1
68,223,77,240,192,247,70,34,1
67,225,74,237,215,228,71,34,1
69,237,85,244,233,220,76,42,1
60,252,86,229,232,256,71,43,1
56,267,95,234,235,270,70,41,1
67,255,97,229,236,288,74,42,1
67,240,90,246,235,323,71,41,1
62,231,82,250,214,330,80,34,1
63,211,77,283,210,308,87,32,1
71,186,72,281,205,288,84,34,1
64,260,61,268,199,262,81,33,1
62,270,67,244,163,228,79,33,1
82,270,68,235,167,234,66,36,1
83,292,71,204,168,275,61,36,1
77,302,65,212,170,296,65,38,1
78,282,75,241,168,313,69,41,1
84,292,68,246,255,451,82,42,1
65,314,68,233,254,473,85,39,1
59,352,71,232,269,506,85,43,1
64,351,75,245,276,537,91,41,1
56,338,71,220,280,600,127,41,1
54,349,74,210,208,520,130,47,1
59,333,71,200,218,547,128,48,1
60,268,60,188,193,494,130,44,1
54,242,51,174,211,474,131,47,1
59,222,48,168,200,379,94,45,1
56,195,41,160,206,381,84,35,1
51,194,41,184,215,319,82,35,1
59,178,44,238,236,367,83,39,1
57,176,49,228,201,339,71,34,1
53,162,49,222,203,369,80,35,1
50,199,53,227,199,376,78,38,1
51,195,53,213,185,366,78,40,1
42,204,56,138,149,333,79,38,1
45,211,51,143,170,342,86,39,1
55,234,56,163,168,324,83,36,1
57,226,59,164,173,302,85,39,1
57,217,57,168,170,309,87,37,1
58,216,53,195,174,296,89,38,1
57,225,57,188,180,286,91,44,1
46,227,50,200,198,270,91,46,1
43,208,50,196,196,265,92,44,1
43,216,53,196,192,246,90,45,1
40,211,52,190,206,240,78,43,1
41,212,49,199,246,243,75,35,1
45,208,55,170,237,283,75,33,1
47,203,50,175,235,268,73,33,1
43,198,50,175,238,325,75,32,1
60,208,55,180,237,319,82,38,1
72,205,57,182,231,334,80,42,1
72,216,53,207,223,326,77,44,1
76,214,55,227,242,323,76,46,1
94,254,56,233,240,273,74,50,1
88,263,56,214,232,271,68,45,1
82,281,60,206,179,269,75,43,1
82,280,62,198,198,285,83,41,1
77,281,60,164,224,299,80,37,1
68,266,61,161,231,306,82,37,1
75,270,63,165,238,324,85,37,1
79,255,60,187,238,306,79,38,1
83,286,57,190,225,272,74,42,1
90,301,68,191,208,290,79,42,1
83,295,66,186,242,290,82,40,1
80,280,62,193,244,275,81,40,1
73,273,62,178,254,336,94,43,1
69,220,65,165,264,357,92,39,1
64,224,50,164,250,364,86,40,1
63,270,54,177,205,368,91,46,1
64,281,53,175,207,392,98,53,1
72,305,51,172,209,410,98,52,1
75,307,52,203,199,439,104,54,1
80,298,69,244,195,457,111,54,1
88,271,72,277,223,473,110,50,1
89,268,78,273,206,552,117,41,1
89,254,79,311,210,533,114,43,1
88,249,78,328,234,501,106,40,1
93,240,73,327,232,501,115,45,1
100,219,73,318,225,494,113,47,1
97,210,71,334,244,420,99,48,1
99,206,88,312,249,454,116,47,1
101,254,87,285,222,468,116,49,1
97,256,83,260,237,432,103,44,1
83,256,83,241,234,412,97,43,1
87,270,85,219,217,386,100,46,1
84,287,71,197,192,317,74,44,1
80,251,76,234,194,282,81,43,1
83,252,77,230,163,285,84,46,1
89,252,74,216,152,307,83,43,1
83,273,68,238,149,277,79,43,1
79,251,64,254,159,277,73,40,1
86,255,58,201,167,304,78,46,1
80,245,55,210,173,323,75,44,1
76,226,56,221,168,307,74,46,1
77,186,56,210,176,308,73,42,1
82,186,57,203,176,300,78,44,1
73,170,57,227,184,296,60,35,1
69,181,59,218,186,279,62,37,1
72,184,56,210,194,254,65,37,1
69,233,58,205,182,252,65,40,1
59,232,55,198,186,276,60,37,1
64,230,55,173,165,239,62,38,1
65,218,58,165,163,231,65,37,1
60,246,55,161,163,289,65,34,1
60,212,58,146,172,317,66,33,1
61,213,55,159,192,305,69,34,1
63,219,57,187,221,314,67,34,1
62,235,50,199,252,314,60,36,1
67,235,54,203,253,265,57,36,1
68,222,56,238,253,244,56,36,1
67,211,61,228,226,229,50,34,1
61,222,58,207,193,219,53,34,1
60,227,57,211,150,216,53,30,1
47,231,55,230,157,244,53,29,1
51,245,54,213,140,264,51,28,1
49,252,54,224,147,257,58,26,1
53,236,63,238,161,293,59,29,1
53,227,62,253,195,293,61,30,1
62,261,66,234,175,287,65,38,1
54,257,67,232,178,273,70,37,1
54,254,67,235,216,300,62,39,1
55,255,59,221,222,281,59,38,1
62,264,67,210,216,307,63,39,1
62,199,62,220,222,315,59,53,1
81,190,58,234,244,332,71,74,1
102,221,55,239,216,303,79,90,1
103,226,52,238,205,294,81,103,1
116,253,48,229,181,260,78,108,1
114,252,47,217,176,238,82,99,1
105,268,42,178,176,209,78,86,1
95,246,55,154,190,246,74,69,1
93,244,61,184,201,249,73,48,1
72,258,71,180,194,260,73,36,1
74,285,83,187,234,275,72,40,1
72,276,86,192,224,276,68,37,1
62,294,86,191,203,265,65,36,1
90,344,83,152,194,271,67,40,1
97,297,77,158,192,272,66,40,1
98,291,69,172,196,271,64,42,1
105,304,69,167,185,272,58,43,1
117,306,64,174,204,303,58,46,1
107,271,69,185,271,297,62,46,1
114,298,68,181,281,329,65,50,1
110,277,64,171,258,323,62,48,1
111,266,64,175,270,325,71,53,1
99,266,59,171,264,291,70,51,1
87,252,56,224,200,331,67,45,1
72,236,53,227,210,300,70,43,1
77,286,55,223,229,297,75,43,1
83,296,54,225,219,308,66,41,1
88,271,54,216,222,292,63,39,1
90,284,52,146,224,264,63,41,1
85,303,58,129,211,310,57,38,1
101,263,58,132,167,315,49,39,1
94,244,57,121,166,317,54,36,1
98,260,56,155,183,341,60,41,1
99,238,56,180,193,357,56,45,1
110,213,52,190,201,305,54,48,1
98,227,52,172,206,293,54,45,1
95,257,52,209,215,309,55,46,1
84,258,52,215,231,346,72,47,1
85,276,62,224,249,314,76,41,1
91,285,63,217,239,314,74,39,1
90,281,63,232,253,325,80,41,1
91,259,61,204,271,288,82,42,1
94,236,62,171,235,232,67,38,1
94,255,63,132,222,217,64,39,1
76,232,55,139,234,215,66,39,1
75,217,54,133,232,205,61,39,1
69,197,52,128,197,241,54,36,1
66,195,49,129,196,220,47,34,1
58,125,33,129,176,218,45,34,1
59,103,34,113,169,211,40,35,1
60,104,38,98,207,207,43,37,1
74,125,38,106,225,217,46,39,1
77,154,45,144,247,257,58,43,1
84,162,56,176,245,300,73,47,1
83,178,57,205,250,310,79,47,1
81,186,59,212,227,314,79,48,1
73,207,69,221,233,343,78,52,1
72,236,79,226,233,327,78,60,1
77,241,76,205,260,329,81,57,1
78,271,76,184,258,404,82,58,1
82,266,78,207,242,444,80,54,1
83,251,75,221,230,415,92,54,1
86,252,66,197,208,450,95,54,1
78,267,64,248,249,455,84,54,1
86,249,61,250,265,430,101,62,1
92,301,66,243,268,458,104,68,1
95,299,66,227,284,485,103,67,1
95,283,76,246,294,462,109,62,1
106,347,100,272,293,460,128,68,1
127,382,104,280,276,455,131,67,1
131,380,100,279,287,457,133,63,1
132,419,97,312,287,512,137,63,1
135,436,92,318,278,529,126,59,1
125,393,67,254,220,513,108,52,1
105,366,64,235,212,482,84,42,1
90,350,62,225,205,413,80,40,1
100,306,59,180,171,280,62,44,1
95,309,54,132,182,243,62,43,1
103,302,51,163,186,256,66,43,1
108,330,59,178,191,267,66,45,1
119,334,62,173,184,257,65,47,1
104,337,68,190,190,283,68,40,1
119,311,65,192,194,291,73,44,1
127,299,68,191,196,323,76,46,1
115,280,69,191,208,360,85,44,1
112,270,64,206,227,419,88,44,1
112,252,60,198,231,409,88,44,1
116,290,67,209,227,394,92,51,1
103,304,63,197,211,426,101,54,1
112,278,55,185,228,386,95,53,1
105,266,54,182,232,337,94,54,1
108,272,55,174,218,360,90,54,1
87,249,46,171,214,361,81,44,1
90,227,44,164,234,283,61,40,1
80,218,38,162,202,312,59,39,1
83,242,41,159,163,367,59,37,1
78,238,36,132,157,328,58,37,1
101,215,40,162,160,333,65,41,1
95,228,42,170,131,315,62,39,1
95,224,41,170,122,294,71,43,1
93,182,41,204,153,290,81,40,1
94,179,45,210,159,292,82,38,1
59,156,39,176,143,279,82,34,1
62,135,35,170,157,280,83,32,1
74,167,40,178,182,297,77,34,1
80,169,42,118,154,220,61,37,1
73,169,38,114,148,214,58,38,1
98,199,42,118,157,283,54,44,1
99,212,42,126,149,339,62,47,1
90,181,39,115,116,322,58,43,1
117,216,43,116,215,322,63,47,1
121,222,44,145,236,390,71,53,1
105,215,45,149,229,363,70,50,1
103,209,44,158,236,394,73,48,1
115,230,47,189,257,434,93,50,1
85,202,44,201,212,473,94,44,1
83,196,45,193,196,426,89,37,1
88,189,43,197,220,424,91,38,1
93,193,49,184,246,372,89,38,1
82,168,47,159,273,320,76,41,1
91,158,42,158,276,274,70,45,1
95,203,43,146,280,283,70,51,1
91,192,45,138,273,260,72,51,1
99,188,45,145,256,334,71,55,1
97,216,44,167,231,414,74,51,1
96,225,44,149,199,424,76,47,1
98,202,46,161,198,424,81,43,1
98,226,47,164,202,431,83,41,1
87,220,41,173,195,424,88,40,1
115,222,50,159,175,360,80,55,1
110,228,54,159,179,407,83,57,1
106,211,51,151,173,413,84,59,1
102,184,51,155,165,455,82,57,1
108,205,54,155,149,395,70,55,1
84,209,55,166,159,420,82,43,1
83,198,55,174,168,351,79,39,1
93,227,55,194,169,336,76,41,1
95,232,53,187,160,270,71,45,1
95,236,50,173,187,279,100,48,1
87,219,41,163,207,288,104,44,1
83,217,39,163,198,286,107,44,1
85,218,45,132,213,323,108,50,1
93,217,49,136,212,312,106,47,1
98,197,49,141,197,299,101,55,1
108,203,63,157,169,412,108,67,1
111,201,63,153,170,424,110,70,1
100,179,61,199,205,403,106,63,1
93,179,59,209,210,426,118,65,1
79,166,59,205,220,444,106,56,1
66,139,45,197,233,303,86,42,1
57,154,49,209,259,286,80,38,1
57,172,46,171,228,278,95,43,1
53,167,49,153,230,299,87,41,1
55,179,51,171,258,350,83,42,1
71,197,49,168,237,332,87,43,1
73,187,44,161,215,339,86,46,1
75,161,44,175,237,351,69,37,1
74,161,42,182,246,313,61,35,1
75,170,43,167,210,229,73,42,1
73,153,50,156,218,288,77,41,1
75,150,49,174,254,299,83,41,1
69,163,49,166,256,302,82,44,1
105,168,55,205,259,348,101,56,1
103,186,55,217,274,426,93,50,1
109,225,50,230,266,395,90,54,1
120,226,52,223,236,387,90,56,1
131,220,52,220,199,403,95,58,1
112,229,48,190,172,392,79,51,1
112,257,46,171,137,320,78,51,1
101,247,45,155,155,330,78,46,1
86,270,49,151,156,341,75,42,1
74,283,49,150,160,330,72,40,1
63,270,44,139,165,299,69,32,1
63,254,43,144,202,350,66,34,1
62,268,48,145,212,395,70,36,1
62,248,46,142,203,389,74,35,1
59,237,46,136,213,364,75,36,1
57,241,46,154,226,362,74,37,1
61,219,45,175,256,309,72,36,1
62,177,45,202,254,269,62,38,1
71,234,48,190,250,256,59,45,1
82,234,52,205,242,293,55,48,1
88,231,55,197,247,325,60,52,1
94,209,55,174,177,332,64,53,1
88,207,51,143,151,331,63,50,1
83,134,50,204,173,341,64,47,1
70,119,44,210,221,328,68,43,1
76,139,55,223,210,345,68,41,1
69,161,68,249,220,335,70,42,1
69,181,69,266,259,325,76,45,1
74,187,68,235,263,329,72,42,1
84,193,69,221,222,312,67,44,1
76,209,70,214,240,271,63,42,1
74,208,58,197,260,280,56,39,1
77,197,58,203,263,269,63,41,1
74,191,60,217,255,258,62,44,1
71,183,62,217,269,255,60,42,1
81,144,54,208,255,277,65,44,1
82,150,53,196,228,275,76,48,1
85,164,52,158,185,326,67,45,1
86,164,48,129,177,343,77,45,1
81,172,46,121,188,359,89,44,1
74,195,43,112,194,428,89,43,1
73,205,44,121,196,447,87,39,1
70,210,42,133,216,409,86,38,1
68,229,45,137,241,391,77,37,1
63,236,42,157,238,465,69,37,1
58,227,45,171,241,419,79,40,1
56,203,43,189,270,399,76,42,1
55,192,43,184,252,400,73,41,1
53,166,45,172,233,436,72,40,1
53,146,45,176,239,431,88,40,1
52,163,43,191,228,389,82,37,1
73,167,49,170,209,386,86,41,1
74,156,55,194,222,451,95,43,1
73,156,68,219,242,424,107,45,1
76,170,71,212,219,338,93,51,1
81,156,69,191,239,353,88,55,1
71,150,74,210,239,372,86,54,1
70,170,80,230,261,332,80,53,1
70,172,83,236,247,329,68,51,1
69,187,84,231,252,323,66,47,1
66,186,86,230,237,351,64,44,1
65,182,79,226,244,341,60,40,1
67,167,73,203,218,286,57,42,1
64,171,56,169,218,304,51,40,1
68,186,55,177,212,362,56,41,1
67,197,56,199,222,427,56,40,1
63,204,57,188,216,435,57,38,1
64,206,57,175,215,442,60,39,1
73,210,59,179,224,434,62,42,1
71,199,56,178,222,382,60,40,1
73,207,54,146,239,270,58,42,1
69,222,52,137,222,221,55,43,1
68,223,51,143,241,246,60,41,1
79,246,47,144,222,302,63,41,1
84,230,49,139,221,308,64,42,1
80,236,48,142,195,292,65,40,1
80,246,52,163,276,373,67,38,1
81,257,51,160,274,359,62,40,1
69,272,54,157,278,297,66,41,1
67,270,53,148,285,304,62,37,1
70,252,54,174,293,322,59,40,1
75,249,50,154,222,278,63,41,1
81,254,51,158,197,338,72,41,1
77,210,48,169,201,380,71,42,1
84,219,45,171,184,364,73,49,1
92,206,46,161,202,368,73,49,1
93,213,52,196,199,361,71,50,1
88,223,50,191,201,354,65,50,1
85,225,52,185,197,304,61,47,1
76,218,54,197,200,351,63,45,1
66,220,52,187,152,347,67,44,1
61,180,49,157,170,376,66,42,1
66,143,45,146,189,326,61,39,1
80,135,46,151,186,350,60,44,1
76,133,43,145,185,343,57,40,1
76,141,51,173,189,416,59,40,1
74,153,48,177,178,383,61,42,1
66,142,51,173,152,384,60,43,1
57,135,46,207,163,380,65,39,1
56,144,63,226,154,388,72,44,1
55,143,57,211,178,304,69,43,1
58,132,64,214,198,281,69,42,1
66,131,66,220,199,274,69,42,1
64,139,77,195,201,299,81,43,1
83,138,93,219,240,262,75,45,1
92,140,100,240,221,250,74,43,1
92,150,96,235,195,249,69,41,1
89,152,100,259,198,252,70,43,1
89,154,94,249,192,237,46,41,1
74,170,73,227,150,330,53,39,1
63,175,69,235,149,338,56,42,1
65,161,68,247,162,334,58,43,1
61,154,61,217,173,353,66,47,1
60,146,59,230,164,369,71,48,1
58,120,57,219,167,286,65,43,1
65,110,52,186,172,283,63,42,1
60,140,60,194,179,320,73,41,1
62,155,63,194,174,351,75,36,1
72,164,65,189,205,315,74,36,1
71,155,62,213,233,305,76,36,1
63,147,59,235,234,309,76,40,1
74,128,56,231,228,322,63,40,1
72,121,51,244,229,264,54,40,1
64,129,52,250,208,251,52,40,1
65,137,53,214,203,244,49,40,1
77,163,57,189,214,234,50,36,1
72,172,62,196,207,182,53,39,1
71,172,65,194,208,192,59,39,1
69,157,64,188,224,207,60,39,1
66,160,60,206,214,250,59,38,1
57,167,60,222,209,244,58,38,1
55,178,51,210,214,244,66,39,1
56,174,50,205,257,254,63,40,1
61,176,47,213,263,293,69,42,1
63,173,63,261,268,286,70,41,1
59,145,72,254,280,306,70,41,1
68,190,75,262,280,327,66,41,1
76,202,80,261,241,345,71,41,1
71,207,83,246,209,320,64,38,1
69,211,73,204,185,314,64,40,1
70,209,61,200,166,329,66,40,1
61,158,65,180,173,293,63,35,1
53,153,58,174,170,264,56,31,1
52,145,59,173,177,290,64,36,1
51,134,56,146,179,337,71,32,1
54,135,60,137,183,307,71,35,1
51,118,52,123,162,308,70,37,1
51,102,49,157,174,308,68,39,1
53,93,46,164,176,271,67,37,1
55,121,48,159,176,242,70,38,1
85,183,46,161,158,231,67,40,1
88,188,48,174,162,262,70,42,1
89,190,52,184,152,251,74,44,1
91,193,53,189,152,253,74,53,1
93,189,53,196,160,240,63,54,1
69,136,51,213,171,317,69,51,1
79,130,51,207,205,296,65,50,1
77,135,54,181,196,332,62,48,1
77,143,58,195,204,363,60,37,1
75,128,63,191,200,363,65,36,1
71,117,63,166,222,352,65,39,1
54,114,62,173,188,356,69,38,1
59,109,56,197,194,334,66,36,1
57,107,52,185,187,310,63,38,1
55,101,41,184,184,296,59,36,1
55,102,43,200,231,319,53,32,1
55,108,45,191,237,324,50,30,1
59,126,46,158,250,355,57,34,1
61,120,46,152,256,363,63,33,1
64,128,47,174,274,392,72,34,1
62,127,47,177,216,360,75,34,1
68,124,51,188,229,352,79,37,1
59,97,52,185,209,319,76,34,1
53,108,55,182,211,368,70,32,1
50,107,68,195,189,376,63,33,1
67,135,73,194,185,344,60,34,1
65,130,68,195,163,406,57,31,1
65,136,68,213,171,412,58,31,1
63,136,63,205,167,360,61,31,1
63,138,51,175,157,316,72,30,1
54,129,51,186,150,322,74,34,1
48,128,54,184,151,257,74,33,1
48,126,53,178,137,240,73,33,1
53,143,55,176,146,239,68,35,1
53,144,57,183,143,234,52,33,1
43,138,54,171,159,301,46,31,1
44,136,52,169,159,299,47,30,1
45,147,61,176,178,314,50,31,1
50,135,62,188,163,326,65,33,1
50,132,67,221,183,335,66,34,1
60,125,84,273,176,299,72,36,1
68,132,86,281,175,294,74,40,1
68,126,83,292,161,270,70,39,1
63,111,85,307,163,238,59,37,1
62,120,87,288,150,236,64,37,1
56,142,67,244,146,224,63,36,1
57,143,70,233,159,209,58,33,1
53,160,69,215,173,212,59,34,1
53,160,79,245,169,222,60,34,1
61,167,71,238,161,205,58,40,1
62,148,72,229,154,186,55,38,1
57,162,67,250,165,219,58,40,1
58,144,67,251,157,216,62,42,1
58,162,59,209,164,223,63,42,1
55,161,61,261,170,247,67,38,1
63,168,64,253,186,241,68,40,1
59,194,69,257,171,220,70,41,1
68,195,71,253,167,235,72,45,1
68,181,69,252,166,250,68,43,1
74,178,64,203,195,238,69,44,1
72,176,67,205,188,244,72,42,1
80,138,59,163,188,250,74,46,1
110,138,57,191,208,235,70,51,1
129,136,49,171,206,190,69,55,1
148,147,57,187,227,194,66,60,1
158,142,54,190,231,228,61,60,1
160,143,57,195,232,318,64,57,1
148,148,58,170,222,329,63,52,1
135,164,61,199,220,341,68,53,1
112,154,58,176,179,347,70,52,1
93,154,56,181,207,328,72,54,1
94,157,58,210,220,265,66,57,1
80,156,72,215,224,252,69,60,1
83,152,77,230,231,265,65,57,1
81,147,81,228,241,303,72,53,1
83,154,82,231,226,294,72,55,1
107,188,86,222,211,269,72,54,1
133,220,78,226,234,268,72,64,1
152,217,73,212,236,252,74,66,1
190,216,68,230,279,269,65,65,1
202,224,66,226,307,270,66,64,1
188,185,57,235,332,270,65,61,1
175,145,61,279,336,345,64,49,1
162,132,64,303,348,352,61,53,1
115,140,62,304,303,286,53,53,1
91,127,77,302,262,281,51,54,1
90,137,84,281,234,328,51,52,1
81,132,89,288,258,286,66,48,1
75,136,89,248,231,280,67,44,1
87,134,89,239,241,292,69,47,1
89,123,85,256,246,300,72,47,1
89,143,92,297,261,247,72,49,1
95,160,90,257,220,217,58,51,1
91,170,97,286,224,240,69,48,1
76,166,98,299,218,267,68,43,1
81,180,103,320,249,295,64,41,1
76,157,90,311,260,375,78,44,1
68,150,96,324,251,401,87,49,1
70,151,91,311,273,380,78,51,1
74,156,101,329,277,355,82,53,1
63,141,88,302,260,332,81,51,1
65,138,90,275,249,321,71,49,1
62,138,71,247,247,293,74,41,1
59,130,75,247,229,303,78,39,1
58,116,63,214,222,354,78,41,1
65,116,66,223,230,375,81,42,1
60,126,69,231,203,313,75,40,1
66,132,72,217,211,300,61,41,1
69,128,75,278,202,286,56,41,1
107,139,80,266,206,224,51,42,1
115,144,80,260,177,177,52,40,1
119,166,106,277,196,165,59,43,1
118,159,107,287,183,220,60,46,1
115,169,107,235,191,222,61,45,1
79,197,139,301,197,225,65,44,1
60,209,138,362,192,250,62,43,1
59,198,118,357,200,244,57,40,1
67,213,127,362,186,202,56,39,1
72,202,125,388,184,213,54,38,1
79,168,85,350,166,210,48,38,1
79,163,88,275,170,171,44,37,1
75,148,93,264,139,224,51,38,1
68,109,87,296,166,210,48,36,1
64,129,91,261,165,221,67,36,1
59,134,88,247,176,278,77,36,1
57,132,99,313,179,281,82,36,1
75,153,108,342,186,251,84,43,1
101,190,116,345,168,261,93,55,1
104,200,127,346,225,269,89,58,1
109,214,144,383,224,220,86,61,1
128,252,146,375,238,240,93,67,1
127,266,140,356,236,231,92,64,1
110,258,144,340,233,224,87,59,1
116,294,142,347,174,188,84,60,1
109,290,132,309,174,164,84,55,1
97,265,138,301,164,160,83,53,1
90,246,143,301,179,184,81,52,1
88,230,132,274,188,187,82,49,1
78,175,125,249,206,199,79,45,1
84,167,129,265,213,209,76,47,1
73,154,109,221,198,190,63,40,1
71,157,110,211,181,157,64,41,1
73,169,102,217,186,165,70,40,1
78,172,117,225,154,159,76,40,1
76,173,109,201,129,145,76,39,1
79,191,118,205,147,166,76,39,1
75,177,120,205,153,176,73,36,1
74,181,132,208,152,190,66,35,1
75,183,117,204,162,207,61,36,1
80,190,132,208,224,265,60,37,1
89,179,125,202,214,268,60,38,1
93,207,116,192,214,282,75,36,1
92,203,112,189,204,271,70,37,1
82,200,109,179,217,289,66,36,1
75,216,90,169,168,266,65,37,1
105,281,91,178,177,253,66,41,1
111,264,83,172,168,266,50,42,1
110,268,74,149,168,284,63,45,1
130,273,65,144,171,283,66,50,1
144,308,66,165,186,281,66,51,1
139,269,61,138,177,302,69,50,1
155,284,63,140,214,279,68,51,1
169,326,56,142,226,279,58,51,1
186,378,75,163,202,276,60,51,1
176,355,76,141,195,272,58,51,1
161,345,79,139,211,261,57,49,1
146,335,78,133,187,309,63,51,1
159,317,80,150,171,311,64,58,1
127,248,64,124,182,302,62,54,1
132,241,60,142,184,286,62,52,1
143,239,56,150,172,295,65,53,1
144,241,59,152,152,285,67,54,1
117,221,62,142,163,260,65,42,1
126,245,63,153,169,259,66,42,1
124,328,63,133,164,279,73,46,1
108,325,61,124,154,334,76,45,1
101,327,56,125,164,354,83,38,1
104,328,47,121,178,362,85,37,1
89,309,47,119,181,352,81,37,1
83,205,42,123,169,335,77,33,1
83,233,42,132,202,287,79,36,1
106,223,49,150,213,229,71,41,1
96,220,48,165,202,224,72,46,1
105,220,51,165,199,227,75,49,1
106,218,52,173,198,229,76,47,1
112,194,51,168,183,191,64,45,1
107,215,52,158,168,210,66,50,1
119,231,51,143,168,197,66,49,1
123,261,57,134,177,245,68,51,1
127,260,59,138,210,312,69,51,1
129,260,62,140,211,352,72,51,1
141,299,59,131,212,342,69,47,1
135,290,59,153,211,379,65,46,1
129,282,55,159,218,393,73,43,1
131,286,56,155,193,375,75,43,1
134,326,62,153,173,370,77,50,1
108,290,61,157,169,374,73,47,1
103,280,63,134,182,343,87,54,1
93,252,58,124,159,367,86,52,1
87,246,53,114,169,362,85,53,1
74,184,48,118,174,332,81,45,1
81,201,52,126,212,319,82,46,1
80,216,55,143,219,349,70,33,1
102,240,61,159,225,301,67,42,1
98,239,62,161,215,272,62,39,1
99,247,61,163,250,265,63,41,1
98,225,58,155,221,277,66,46,1
104,203,55,154,236,260,68,52,1
101,205,47,132,240,240,63,48,1
105,238,45,127,244,242,64,52,1
108,240,46,118,237,282,67,56,1
104,234,44,121,239,323,66,53,1
105,236,47,104,208,330,70,48,1
104,274,53,123,210,344,76,45,1
121,262,59,154,233,361,72,44,1
131,272,61,166,211,378,69,43,1
141,277,63,167,239,348,66,43,1
159,282,68,192,242,324,63,49,1
158,233,66,198,224,330,62,54,1
149,251,61,183,215,356,65,54,1
156,237,62,179,244,329,71,58,1
149,230,64,199,232,338,71,58,1
150,258,54,179,227,341,67,60,1
146,290,57,170,249,321,69,62,1
144,260,55,187,253,306,70,61,1
123,267,48,195,226,284,72,56,1
135,277,45,168,199,266,71,58,1
107,251,46,177,204,270,71,52,1
102,231,41,170,192,252,65,44,1
123,261,45,150,177,208,69,63,1
263,305,70,142,167,197,105,137,1
260,301,119,198,204,175,110,151,1
267,287,132,218,223,192,151,162,1
271,276,192,240,226,239,165,168,1
284,248,221,251,221,274,174,172,1
169,175,224,260,264,288,158,127,1
170,179,207,227,246,310,159,114,1
159,191,212,206,227,311,126,101,1
153,170,163,200,225,291,106,91,1
122,180,126,219,251,283,89,73,1
118,177,114,221,220,291,78,61,1
102,180,103,218,226,266,66,53,1
102,173,74,217,234,242,62,45,1
102,178,70,211,226,286,64,44,1
92,192,63,178,196,326,59,39,1
88,175,59,160,212,335,68,41,1
116,167,62,173,239,364,74,52,1
117,181,63,171,246,378,72,53,1
117,194,61,150,250,340,69,56,1
107,159,57,141,247,292,68,54,1
106,158,50,142,233,315,57,53,1
74,160,54,130,195,286,65,43,1
98,159,54,147,180,316,67,48,1
105,165,56,161,177,313,69,44,1
103,183,59,193,198,347,74,45,1
104,212,69,197,188,315,77,44,1
107,224,65,199,189,311,69,43,1
82,212,64,180,176,287,69,37,1
77,200,61,183,172,296,73,42,1
75,205,57,153,171,263,70,39,1
71,186,45,143,178,295,70,37,1
76,189,42,147,185,308,66,38,1
89,223,41,166,219,309,63,46,1
86,219,46,157,227,322,59,45,1
88,204,47,154,217,321,64,48,1
86,206,47,154,222,298,63,47,1
77,191,47,146,210,288,61,47,1
73,162,42,127,180,289,58,38,1
71,157,35,142,187,305,57,35,1
76,172,35,146,174,282,50,37,1
88,165,33,149,163,278,50,37,1
91,163,34,181,184,292,58,37,1
80,152,38,186,206,259,64,38,1
84,158,41,172,190,247,71,38,1
82,136,38,165,189,293,81,36,1
78,132,39,175,199,308,78,37,1
77,143,44,152,212,299,71,37,1
78,156,44,152,199,377,78,39,1
73,152,44,150,204,376,83,42,1
79,152,44,148,207,349,72,43,1
76,164,45,146,200,333,72,41,1
77,139,46,132,206,339,79,42,1
82,130,57,130,221,332,75,43,1
79,151,57,133,228,318,71,42,1
90,181,60,134,230,336,74,42,1
88,200,61,140,229,332,74,42,1
96,206,62,162,221,349,86,44,1
96,200,55,169,216,300,82,41,1
103,209,56,175,223,306,74,41,1
87,188,56,180,231,295,80,39,1
91,156,57,178,226,305,89,42,1
84,150,55,158,214,301,82,41,1
84,164,55,143,202,297,82,42,1
81,146,53,129,174,287,83,41,1
91,164,49,120,165,257,74,45,1
86,163,45,100,194,258,83,46,1
88,162,41,103,183,297,76,46,1
81,173,34,104,174,280,72,45,1
85,193,31,113,186,273,73,47,1
70,183,35,125,193,285,76,47,1
72,186,39,135,182,329,69,46,1
102,206,42,128,177,315,70,48,1
121,212,40,129,182,329,90,51,1
125,196,42,148,196,368,97,53,1
128,193,39,147,201,391,97,52,1
130,208,51,160,245,366,89,56,1
108,214,59,167,268,358,95,54,1
98,200,63,170,286,439,82,52,1
100,197,67,151,268,558,88,58,1
105,221,68,138,253,550,91,62,1
100,219,66,115,210,539,94,62,1
96,212,60,105,176,517,86,63,1
94,217,57,94,135,463,100,63,1
86,229,58,99,185,301,86,56,1
84,237,57,104,193,301,104,54,1
86,233,48,98,196,303,104,51,1
96,245,48,94,241,331,106,55,1
86,262,49,111,271,296,91,56,1
78,250,48,144,258,311,93,55,1
73,226,49,151,251,319,70,50,1
78,256,49,155,245,308,71,49,1
63,235,48,167,224,275,75,43,1
70,199,47,166,183,267,76,39,1
74,210,42,139,167,186,75,43,1
84,217,40,136,192,174,78,44,1
77,178,40,139,189,173,73,45,1
87,175,39,126,175,260,74,46,1
82,178,42,121,184,283,71,45,1
86,162,41,113,200,287,74,50,1
81,139,52,107,174,261,70,50,1
94,123,52,99,173,308,73,51,1
92,129,52,92,164,308,66,51,1
95,133,49,72,167,301,64,52,1
117,121,52,76,149,308,65,50,1
114,132,48,73,151,327,65,49,1
105,135,46,74,137,289,60,49,1
103,166,48,83,214,242,57,46,1
108,159,46,88,237,290,61,50,1
85,160,46,97,238,294,80,48,1
94,162,45,99,241,295,86,52,1
97,194,50,115,266,324,88,54,1
99,188,50,125,220,364,95,56,1
96,202,54,132,183,325,99,52,1
104,222,52,126,186,329,83,53,1
114,263,53,165,215,414,90,55,1
114,252,52,169,199,424,92,51,1
121,271,51,188,200,415,96,56,1
139,294,57,199,253,456,112,61,1
138,302,67,257,263,529,116,56,1
151,315,69,471,285,560,123,55,1
154,329,75,520,317,577,144,58,1
160,331,74,519,345,592,148,56,1
141,329,74,531,321,613,149,52,1
136,345,67,521,308,552,151,55,1
103,303,62,337,279,463,141,54,1
106,300,58,259,254,419,124,56,1
93,289,57,247,214,371,123,55,1
93,262,51,210,229,296,105,55,1
101,223,51,187,229,315,97,56,1
120,220,58,195,214,374,95,55,1
114,205,56,178,201,362,103,49,1
112,175,54,179,191,351,92,46,1
113,178,56,183,199,407,95,49,1
102,200,53,165,247,385,95,46,1
100,199,46,130,251,339,100,47,1
101,205,39,132,245,336,92,51,1
100,220,41,125,255,381,98,53,1
104,229,36,111,244,319,96,46,1
111,203,40,156,198,328,102,51,1
109,273,48,193,221,365,106,51,1
110,252,52,193,263,404,99,49,1
116,237,56,215,256,404,90,48,1
116,244,56,239,246,470,87,49,1
118,245,59,220,250,532,88,44,1
103,173,52,189,249,497,76,40,1
106,224,54,200,211,477,72,41,1
97,227,53,191,206,439,73,42,1
98,213,53,169,194,379,71,41,1
87,218,48,186,221,279,64,40,1
95,206,52,188,212,307,63,39,1
83,154,50,189,212,304,60,34,1
85,147,48,178,232,325,62,34,1
78,145,47,177,230,303,59,38,1
85,149,48,160,223,402,64,40,1
105,196,45,171,216,407,64,44,1
107,197,43,161,207,395,64,43,1
114,215,42,170,220,428,61,46,1
116,219,45,179,228,423,60,44,1
131,257,45,168,199,337,46,45,1
111,245,51,159,194,303,45,41,1
113,279,53,209,213,306,47,42,1
104,273,56,200,184,336,67,41,1
104,288,58,187,182,359,87,42,1
126,279,58,191,193,353,87,47,1
126,273,55,199,202,393,92,47,1
128,260,56,147,208,406,93,50,1
128,256,51,156,197,322,79,46,1
134,226,50,169,218,325,57,47,1
90,187,47,165,206,315,55,38,1
91,165,40,163,230,383,57,40,1
82,122,36,159,215,373,57,35,1
97,156,40,153,245,398,65,42,1
90,154,37,139,222,377,64,40,1
91,167,36,150,241,396,74,46,1
87,197,46,157,201,313,90,51,1
101,236,45,146,198,311,91,55,1
105,213,47,139,234,323,88,53,1
113,241,48,142,237,317,86,53,1
160,285,66,142,219,290,85,53,1
177,316,84,131,234,304,64,56,1
180,308,89,168,243,327,68,55,1
176,307,91,192,186,302,70,55,1
172,310,113,262,188,353,83,58,1
143,281,111,264,218,372,81,57,1
128,228,96,264,215,327,84,52,1
118,209,94,261,219,331,86,52,1
112,234,92,243,226,413,86,50,1
134,218,65,165,221,373,75,49,1
126,213,57,158,234,360,75,50,1
120,209,57,159,222,344,70,45,1
127,210,57,129,207,319,67,41,1
122,184,58,135,187,189,63,40,1
122,203,60,133,198,206,63,43,1
115,186,57,141,169,193,61,37,1
132,206,65,144,178,225,68,40,1
123,206,64,145,164,219,62,40,1
141,217,64,153,173,320,76,45,1
126,195,59,153,168,351,78,45,1
135,202,60,147,161,373,83,47,1
119,189,50,129,154,358,79,44,1
120,203,46,142,199,367,83,45,1
98,196,46,136,204,295,71,41,1
97,214,47,132,197,258,73,37,1
91,218,47,139,207,271,74,39,1
95,225,49,152,216,421,90,43,1
93,220,48,143,179,428,89,43,1
104,226,50,152,194,441,87,44,1
103,202,53,176,210,430,90,47,1
105,209,51,167,223,433,86,45,1
99,213,51,171,214,310,70,42,1
102,209,54,183,229,320,67,43,1
93,199,57,180,214,303,78,43,1
96,240,55,168,217,314,87,39,1
106,232,63,183,181,301,87,42,1
114,228,79,187,230,353,86,44,1
114,229,80,188,227,362,91,44,1
116,230,78,190,215,350,84,43,1
105,190,77,183,207,359,74,40,1
94,184,70,174,208,384,70,42,1
97,176,50,157,150,368,76,43,1
93,162,47,140,151,343,72,44,1
101,177,53,141,153,345,70,48,1
103,167,51,135,150,348,65,49,1
99,169,52,140,173,332,69,45,1
91,161,52,180,186,326,64,44,1
112,175,60,188,196,347,79,48,1
107,167,49,187,224,356,90,46,1
115,167,51,209,222,347,90,45,1
128,153,52,201,201,340,92,52,1
135,179,52,174,212,375,98,52,1
121,160,43,169,189,350,90,49,1
135,153,56,179,170,333,82,53,1
126,166,54,160,203,328,80,52,1
110,184,53,169,209,426,77,46,1
105,171,60,160,191,388,77,48,1
105,179,61,165,205,401,78,47,1
83,186,60,183,216,418,77,42,1
103,183,61,185,188,459,84,49,1
110,172,64,177,207,352,94,50,1
103,173,59,187,217,314,89,46,1
100,169,59,197,222,312,86,45,1
99,199,54,202,212,298,84,43,1
73,196,54,202,204,230,82,36,1
62,200,48,203,174,254,70,32,1
68,187,46,190,168,264,66,32,1
94,204,53,184,177,413,83,38,1
89,171,48,141,156,410,83,37,1
95,184,49,130,159,424,82,41,1
93,197,49,122,162,415,80,41,1
94,200,57,129,196,507,119,45,1
82,184,52,116,167,395,111,46,1
102,190,54,113,172,391,111,49,1
124,183,55,121,183,383,113,50,1
129,163,56,129,191,367,113,50,1
127,161,47,123,141,290,75,48,1
118,171,45,126,138,266,66,43,1
113,205,43,134,144,270,67,41,1
85,215,39,138,148,313,60,40,1
79,235,39,165,139,360,64,46,1
91,240,41,180,145,338,60,47,1
102,253,46,182,171,338,58,46,1
91,212,47,201,191,332,57,45,1
89,198,55,214,221,324,62,42,1
90,184,59,200,227,284,63,38,1
82,183,58,196,253,270,65,40,1
68,160,54,185,245,276,64,41,1
67,202,57,159,255,289,68,44,1
71,191,53,155,228,326,73,45,1
73,177,48,144,223,322,73,46,1
73,194,54,166,210,319,71,44,1
78,194,58,185,220,324,77,44,1
79,187,60,195,200,318,86,45,1
75,185,55,176,194,267,81,43,1
91,214,57,174,213,267,84,42,1
98,202,57,163,197,284,83,42,1
108,215,52,154,177,287,88,44,1
108,204,47,148,156,313,78,40,1
111,208,46,150,159,278,78,40,1
100,184,44,164,141,280,76,40,1
86,175,46,163,140,294,83,40,1
74,173,55,173,156,330,85,38,1
83,165,84,218,191,368,92,41,1
82,167,88,228,184,363,88,41,1
75,166,90,232,185,388,100,39,1
100,171,88,228,193,355,92,42,1
106,156,86,231,208,313,83,40,1
113,151,63,195,193,279,80,43,1
112,151,61,191,187,279,80,42,1
115,172,60,170,194,271,63,45,1
94,174,59,170,191,261,60,39,1
81,168,60,147,164,256,55,38,1
56,157,53,140,189,289,61,33,1
72,160,58,128,203,321,70,37,1
69,137,56,149,186,323,71,32,1
74,144,54,145,177,323,73,33,1
102,174,51,148,174,334,73,36,1
106,191,53,151,179,283,62,34,1
95,221,63,200,179,294,60,31,1
99,227,77,203,241,267,61,36,1
96,221,81,248,263,278,67,38,1
72,222,86,270,264,307,67,35,1
80,210,84,263,241,328,73,35,1
82,172,73,235,263,294,70,35,1
79,166,61,226,243,290,74,32,1
110,159,60,186,222,326,75,38,1
116,135,52,167,220,367,81,41,1
115,131,72,195,220,358,80,42,1
124,167,74,189,191,390,80,48,1
128,168,74,205,151,474,79,47,1
102,167,74,191,152,458,79,42,1
95,158,73,174,182,401,73,40,1
92,164,58,148,192,406,71,40,1
98,132,56,181,204,414,66,35,1
97,141,52,158,203,324,60,36,1
98,146,50,170,197,313,58,35,1
103,162,53,171,163,325,72,36,1
99,154,49,183,155,291,71,34,1
78,153,46,168,126,259,80,31,1
68,132,44,163,142,284,81,29,1
78,132,44,154,155,298,83,31,1
69,106,39,152,179,314,70,27,1
73,107,41,135,191,348,92,31,1
72,92,42,109,188,328,86,29,1
69,119,43,117,183,294,88,31,1
76,115,38,136,192,272,81,34,1
70,118,38,138,185,228,81,35,1
82,158,35,128,165,245,61,41,1
82,172,49,153,201,382,61,41,1
85,156,52,175,201,404,56,43,1
67,155,52,157,179,405,56,39,1
69,166,54,151,168,404,55,39,1
75,133,53,165,205,419,49,37,1
82,122,50,157,198,363,82,43,1
82,145,48,131,194,371,83,44,1
87,146,52,132,192,395,83,43,1
93,164,53,139,190,414,87,46,1
74,155,52,134,204,386,87,41,1
70,150,43,117,185,333,60,34,1
75,132,45,122,188,322,67,31,1
72,136,43,148,207,301,74,36,1
65,100,42,149,223,281,69,31,1
86,137,43,146,200,278,71,34,1
89,137,46,161,222,285,71,36,1
86,151,48,162,222,258,65,37,1
99,156,46,144,215,243,63,36,1
100,200,53,164,239,388,67,40,1
90,185,58,172,227,401,71,39,1
87,189,60,157,222,410,77,42,1
95,181,58,156,217,455,78,43,1
87,180,60,159,214,464,74,42,1
90,163,57,144,186,391,78,39,1
85,162,56,134,189,373,80,42,1
86,175,50,134,161,368,99,41,1
87,183,52,124,153,325,106,43,1
82,205,53,112,145,311,109,44,1
84,209,49,113,153,263,106,44,1
80,204,45,106,133,223,104,42,1
82,211,43,105,144,194,79,40,1
71,242,44,104,156,189,68,36,1
72,219,46,103,188,223,73,35,1
71,192,47,79,165,216,75,34,1
80,214,55,87,164,223,69,40,1
75,204,54,84,152,214,72,40,1
73,149,59,103,145,197,78,40,1
70,144,58,116,127,205,81,42,1
67,211,59,119,125,241,79,46,1
66,210,53,120,147,309,77,40,1
86,212,54,118,158,332,87,38,1
92,216,47,99,184,328,84,40,1
95,224,45,97,171,340,77,36,1
98,168,45,126,179,399,76,36,1
104,149,49,131,198,363,80,38,1
96,139,50,132,195,342,65,38,1
93,133,46,145,185,343,59,37,1
101,123,53,142,188,365,71,42,1
99,127,49,120,190,324,67,39,1
89,152,48,150,175,311,71,39,1
79,145,46,154,171,311,72,39,1
84,148,51,151,166,313,92,46,1
78,149,48,149,225,293,99,48,1
71,137,50,149,225,229,102,47,1
81,136,53,114,213,240,99,49,1
82,148,61,127,227,272,105,49,1
76,146,60,126,226,289,93,42,1
76,150,61,128,169,262,72,37,1
78,151,61,125,160,266,70,41,1
82,152,57,130,171,281,80,38,1
81,141,57,116,149,253,72,38,1
114,164,55,123,159,319,71,42,1
110,166,49,120,157,298,72,40,1
120,183,51,128,166,314,71,37,1
119,174,47,130,160,312,73,39,1
123,193,40,134,182,383,78,41,1
97,187,44,145,172,377,84,39,1
132,212,62,174,205,428,95,43,1
122,204,63,182,214,452,98,41,1
132,200,66,184,242,458,94,46,1
130,205,70,193,229,440,94,47,1
128,193,66,187,235,400,83,46,1
91,189,56,182,228,355,71,44,1
99,204,56,187,230,322,65,46,1
87,198,56,177,212,344,61,39,1
86,186,51,173,220,310,62,39,1
90,191,56,181,209,321,67,37,1
91,168,51,160,185,336,71,34,1
83,146,52,157,186,326,73,35,1
83,167,50,167,172,273,66,37,1
89,165,50,159,156,301,78,39,1
86,165,46,140,151,336,74,40,1
92,170,50,192,162,352,68,43,1
103,177,45,196,193,358,72,42,1
99,157,44,205,187,374,73,44,1
94,152,47,241,198,338,56,41,1
98,147,45,242,218,333,58,40,1
107,169,46,220,213,288,57,42,1
101,165,48,218,175,292,51,42,1
98,170,52,216,186,298,48,39,1
94,169,48,174,178,342,41,38,1
86,165,48,175,161,292,44,38,1
70,144,48,162,158,293,45,34,1
70,132,50,153,142,277,43,32,1
79,140,52,142,159,252,46,32,1
80,145,55,151,160,254,52,33,1
87,160,57,160,164,347,61,33,1
85,145,53,152,162,394,65,31,1
84,155,51,154,188,414,73,35,1
84,162,48,156,186,410,71,36,1
86,154,49,155,191,427,70,37,1
88,156,45,151,181,412,63,37,1
87,159,46,153,197,386,58,37,1
86,158,46,139,192,377,52,35,1
74,125,44,129,173,379,58,38,1
78,126,42,118,165,328,61,37,1
70,114,47,114,188,241,56,36,1
72,127,47,131,230,222,64,39,1
63,123,44,132,213,201,65,37,1
69,141,42,143,228,264,59,30,1
66,155,43,148,225,276,55,30,1
69,152,45,145,222,303,55,33,1
77,138,46,134,184,338,52,29,1
79,151,43,144,205,385,58,30,1
76,148,48,159,184,357,86,35,1
82,158,53,171,188,338,93,37,1
93,160,49,167,173,346,96,38,1
85,165,54,174,156,373,101,38,1
90,149,57,162,148,333,99,37,1
92,148,54,141,153,316,79,36,1
87,119,49,132,151,324,72,34,1
79,112,50,142,184,307,70,30,1
86,113,53,144,203,261,67,33,1
88,128,56,163,194,255,70,34,1
82,127,55,158,190,249,69,32,1
93,131,60,152,196,323,71,35,1
102,131,59,151,182,307,66,37,1
104,132,52,137,153,313,65,38,1
103,145,50,111,142,320,59,37,1
104,144,57,114,172,336,62,38,1
95,155,51,116,170,277,61,36,1
86,152,48,139,166,286,65,38,1
98,157,50,148,169,278,79,41,1
98,133,45,154,185,303,80,39,1
103,124,37,152,167,362,93,42,1
101,108,42,155,182,346,95,45,1
99,120,42,133,182,355,102,43,1
96,128,37,128,186,342,90,39,1
91,140,39,140,184,342,94,41,1
88,149,41,151,191,266,96,39,1
90,145,37,148,206,287,98,38,1
101,159,36,148,204,290,92,43,1
86,161,38,145,195,270,92,41,1
83,167,43,130,197,235,96,42,1
81,164,41,115,203,274,80,42,1
80,188,42,135,173,276,81,38,1
59,173,43,169,163,281,85,33,1
57,180,45,185,173,283,86,33,1
61,170,44,190,178,307,74,30,1
62,171,46,214,171,310,85,31,1
70,173,46,206,158,288,84,36,1
91,179,47,181,170,305,81,38,1
91,159,44,164,203,326,77,38,1
93,173,49,185,186,315,84,39,1
92,177,48,157,180,273,75,38,1
94,172,47,158,191,275,69,40,1
74,162,47,170,208,220,63,37,1
81,156,52,192,173,311,71,41,1
84,142,42,172,177,318,73,43,1
85,137,40,171,166,319,64,42,1
75,125,42,172,186,334,67,39,1
81,131,41,149,169,345,75,41,1
78,136,40,123,176,252,68,40,1
76,143,42,116,168,251,62,40,1
82,150,45,131,174,280,72,44,1
80,141,43,114,154,322,78,41,1
75,147,48,114,144,340,74,41,1
68,149,46,113,124,369,79,39,1
72,148,49,118,133,373,79,35,1
76,139,49,121,160,377,73,33,1
81,139,54,128,153,354,69,33,1
82,140,51,147,149,379,83,39,1
93,158,53,147,147,435,90,39,1
90,156,48,156,163,425,88,40,1
80,151,51,152,178,418,87,41,1
104,157,48,160,189,444,90,46,1
107,154,52,148,189,420,79,42,1
105,144,47,145,201,347,73,43,1
121,135,50,125,198,331,73,46,1
120,142,47,130,160,310,74,44,1
99,132,47,120,145,315,76,39,1
102,132,42,125,151,333,75,38,1
103,120,42,123,133,313,68,39,1
88,153,41,123,122,322,72,34,1
94,151,41,127,156,398,77,35,1
93,166,44,161,174,347,70,40,1
92,162,45,160,174,334,73,42,1
86,157,50,169,183,380,80,41,1
84,139,51,176,198,457,92,40,1
94,142,51,166,187,426,103,44,1
93,131,50,150,183,510,118,41,1
89,128,49,158,210,539,118,40,1
98,132,46,157,207,542,117,39,1
96,169,46,155,201,518,109,40,1
86,169,48,152,186,504,97,37,1
95,166,48,141,178,475,90,40,1
95,215,48,127,180,470,88,41,1
98,224,55,137,197,464,94,46,1
101,194,55,132,199,478,105,48,1
99,209,53,141,216,515,105,47,1
100,216,52,133,219,485,102,46,1
102,173,53,139,196,493,105,44,1
89,159,51,159,176,468,101,41,1
90,167,59,169,163,413,88,43,1
85,139,56,162,144,357,98,40,1
75,131,57,199,165,375,92,41,1
72,145,56,194,165,329,95,41,1
86,150,51,168,170,331,95,46,1
81,141,45,173,184,350,93,43,1
85,147,47,180,191,359,89,46,1
90,146,49,162,167,333,96,45,1
91,134,49,170,170,302,86,44,1
92,129,51,185,185,298,87,45,1
91,123,47,182,182,285,88,46,1
93,126,53,174,173,271,80,44,1
88,129,48,152,172,342,74,42,1
91,133,46,150,173,355,76,43,1
77,136,47,174,167,408,76,42,1
90,152,52,167,151,423,76,42,1
87,149,49,176,154,458,80,44,1
100,154,51,183,154,425,87,48,1
97,139,52,185,157,443,86,47,1
98,156,53,155,142,409,84,42,1
84,144,50,150,139,381,90,40,1
83,155,55,144,150,388,83,39,1
73,148,55,135,155,363,76,37,1
73,149,57,129,159,365,77,38,1
67,141,56,127,162,335,72,38,1
78,137,57,120,170,326,61,36,1
72,126,50,121,161,263,59,35,1
67,128,50,125,175,315,68,34,1
73,171,46,126,160,288,74,34,1
81,173,44,114,152,290,73,39,1
72,171,43,119,145,352,82,39,1
80,167,43,116,164,401,85,40,1
80,166,40,106,183,340,74,39,1
75,140,45,103,176,361,69,37,1
73,136,43,96,176,390,82,32,1
74,147,42,123,210,425,96,34,1
77,149,41,119,208,381,99,41,1
84,153,42,117,173,391,100,40,1
82,142,40,118,180,387,106,41,1
78,150,50,144,186,437,110,42,1
88,145,50,125,182,356,101,44,1
82,140,49,124,163,379,98,40,1
77,131,49,127,169,379,96,42,1
77,121,46,125,161,394,89,43,1
84,117,43,98,169,373,89,47,1
71,113,43,123,153,370,78,44,1
71,145,46,120,159,406,77,42,1
64,143,45,121,155,417,79,42,1
78,155,50,129,158,456,82,45,1
75,150,42,128,148,408,61,43,1
82,150,49,106,125,414,63,43,1
83,116,47,104,135,371,65,41,1
88,124,48,110,130,398,61,38,1
82,122,43,107,142,380,66,35,1
78,120,43,108,143,401,68,34,1
88,145,35,106,147,419,73,36,1
93,162,34,106,154,402,76,38,1
89,167,35,93,155,475,92,40,1
84,166,41,85,140,430,85,36,1
98,187,45,93,141,443,91,39,1
83,171,47,93,153,488,89,37,1
76,172,47,93,134,507,85,35,1
83,172,45,109,148,408,71,40,1
87,175,53,138,153,391,70,42,1
76,145,49,133,144,374,63,37,1
73,146,50,132,146,287,57,39,1
79,170,51,132,154,263,56,40,1
79,161,51,120,143,257,53,37,1
74,156,41,83,138,271,53,36,1
69,152,45,79,143,310,54,37,1
85,157,44,90,141,345,62,38,1
83,133,46,109,125,342,61,36,1
80,139,49,127,138,348,62,35,1
85,182,46,129,147,342,65,38,1
103,194,44,126,143,333,66,37,1
98,197,46,116,140,314,70,34,1
105,195,43,101,155,318,70,37,1
107,205,43,80,139,302,75,37,1
119,179,47,87,157,352,75,44,1
106,176,47,84,158,315,72,44,1
113,166,43,83,168,324,68,47,1
108,171,46,91,179,308,71,47,1
111,183,51,104,186,302,71,49,1
100,198,47,96,164,299,74,42,1
97,205,51,112,162,353,79,41,1
86,213,52,147,160,329,77,36,1
84,213,52,143,128,370,80,38,1
75,190,46,135,126,425,80,33,1
77,175,49,136,146,404,77,31,1
76,164,42,125,147,431,75,32,1
74,179,41,84,135,444,74,32,1
71,163,43,81,138,456,71,29,1
70,171,45,77,131,457,67,28,1
58,160,44,77,144,454,65,29,1
65,172,50,76,150,379,63,31,1
68,148,52,80,140,360,61,34,1
73,157,49,82,138,355,59,36,1
77,150,46,86,160,375,61,39,1
95,157,45,106,140,364,62,41,1
95,158,37,106,145,364,57,38,1
106,174,32,103,144,374,60,36,1
101,169,30,101,163,390,62,33,1
101,172,37,110,148,345,66,31,1
83,189,36,87,145,359,75,31,1
81,187,40,88,155,369,79,32,1
68,175,48,119,159,409,89,34,1
69,173,50,130,166,361,88,38,1
70,168,46,126,171,328,81,38,1
71,144,46,132,165,317,76,37,1
71,163,47,132,156,296,75,38,1
88,171,46,105,178,236,62,37,1
92,177,45,89,160,217,58,33,1
92,178,47,80,154,230,65,34,1
98,180,47,83,171,232,65,36,1
96,159,49,79,166,267,71,37,1
75,154,46,88,138,273,74,35,1
75,172,48,88,144,290,76,40,1
70,180,48,91,159,308,72,38,1
60,178,45,83,168,310,72,36,1
65,178,41,89,169,296,72,34,1
69,193,45,86,170,296,71,40,1
65,188,42,82,158,289,76,36,1
67,186,42,92,181,293,73,38,1
70,190,45,97,153,369,86,38,1
80,198,46,98,154,368,81,40,1
102,190,45,114,155,376,81,38,1
107,187,48,150,185,402,81,44,1
111,227,47,144,172,400,88,46,1
114,224,48,149,179,341,99,49,1
107,218,49,157,180,392,103,46,1
89,234,46,157,188,430,106,44,1
85,244,44,148,225,414,103,40,1
93,218,49,235,248,399,108,37,1
109,347,70,396,280,434,92,46,1
148,353,76,418,300,405,97,53,1
169,348,83,464,364,402,102,59,1
188,349,97,516,359,481,118,61,1
219,367,98,500,344,517,123,67,1
214,291,90,439,346,562,129,61,1
197,287,91,500,350,547,131,58,1
203,312,104,474,312,590,143,60,1
195,308,102,494,336,580,140,64,1
160,300,107,603,414,633,138,65,1
159,297,105,642,425,687,134,65,1
152,303,101,602,414,706,125,64,1
138,284,88,622,404,657,105,68,1
127,281,84,606,391,605,90,61,1
128,272,74,571,306,516,70,58,1
135,246,71,497,274,344,71,57,1
132,258,70,478,268,338,74,61,1
109,230,62,444,259,352,80,51,1
112,247,50,385,206,357,84,54,1
119,246,54,258,231,384,89,54,1
104,246,53,255,221,497,96,52,1
108,219,54,254,222,518,91,46,1
112,232,58,266,227,526,92,43,1
109,225,58,265,228,598,85,39,1
95,252,58,249,197,597,82,33,1
99,243,57,221,185,511,72,33,1
101,244,53,210,203,486,83,35,1
93,235,48,204,180,446,81,35,1
98,266,62,196,192,430,95,44,1
93,225,59,203,203,436,95,45,1
93,269,58,211,210,489,92,47,1
87,276,63,203,177,470,81,45,1
118,282,75,201,181,517,85,57,1
111,236,74,217,181,459,73,53,1
107,235,76,212,153,513,71,53,1
129,272,76,202,144,538,71,54,1
138,276,74,203,157,552,71,57,1
112,273,61,171,156,514,61,45,1
110,271,50,134,149,507,59,44,1
112,281,47,124,162,435,60,45,1
84,192,46,135,175,372,53,42,1
64,175,47,134,170,354,50,39,1
68,191,46,120,180,370,51,41,1
67,187,44,128,178,373,47,39,1
66,183,50,158,176,400,70,38,1
74,184,54,188,174,340,73,38,1
95,188,62,189,186,330,85,43,1
95,157,63,195,174,338,85,39,1
97,155,64,196,166,337,87,39,1
98,144,57,176,171,307,75,37,1
95,139,52,134,156,309,72,38,1
75,130,40,131,158,342,78,43,1
72,125,42,135,155,301,83,45,1
84,138,39,144,178,306,93,46,1
80,147,42,138,165,272,88,44,1
72,155,42,141,179,298,90,43,1
73,170,44,140,186,304,84,33,1
96,186,43,139,194,340,82,38,1
87,183,46,134,189,330,75,41,1
94,186,45,131,202,389,77,46,1
101,175,51,156,218,366,77,47,1
103,179,52,162,217,346,74,49,1
83,177,52,172,218,308,67,42,1
88,195,49,171,218,358,72,40,1
80,183,48,185,210,310,78,36,1
75,189,42,196,192,345,80,35,1
73,171,45,209,193,373,91,33,1
80,163,43,219,216,376,96,35,1
75,154,45,220,203,358,90,35,1
82,156,48,207,197,366,89,36,1
98,152,52,176,215,400,93,39,1
94,163,49,169,213,369,87,38,1
110,173,53,145,192,403,89,40,1
116,182,56,142,190,389,108,47,1
117,191,58,144,201,414,121,46,1
121,200,58,171,182,403,120,46,1
124,210,56,169,170,408,114,45,1
114,220,55,179,183,408,111,42,1
110,214,50,191,207,396,94,38,1
104,210,51,197,209,359,75,37,1
91,204,50,169,209,302,71,35,1
96,194,49,152,199,278,67,36,1
85,172,49,134,192,273,68,37,1
82,151,52,136,189,284,64,32,1
90,143,48,126,195,337,72,37,1
86,156,47,149,184,360,72,37,1
80,147,48,153,201,397,74,37,1
92,177,46,149,186,371,73,41,1
91,181,45,140,164,345,75,46,1
85,189,45,147,157,361,67,43,1
80,179,47,126,158,350,63,41,1
82,218,45,136,149,317,68,41,1
74,197,48,147,180,332,73,36,1
85,208,45,133,178,331,72,33,1
89,205,40,127,170,403,78,36,1
91,201,37,137,165,408,77,37,1
93,152,37,127,180,409,85,41,1
88,146,35,129,147,403,76,40,1
92,138,41,133,162,539,79,47,1
94,167,51,142,155,446,71,48,1
99,183,51,134,194,438,74,49,1
94,182,52,141,210,457,72,47,1
97,198,52,135,218,460,75,47,1
88,235,49,131,213,321,72,42,1
95,207,50,135,243,320,70,42,1
86,187,51,135,218,334,69,39,1
86,191,52,125,200,350,63,38,1
89,190,50,128,214,341,65,41,1
97,131,50,140,210,310,66,39,1
86,133,44,121,178,297,67,32,1
92,136,41,126,196,307,74,34,1
105,176,45,144,203,353,85,44,1
108,161,44,137,176,347,84,42,1
97,162,45,136,181,373,83,41,1
104,165,43,146,249,375,90,47,1
102,171,50,161,280,405,97,49,1
97,135,50,155,259,344,85,41,1
92,169,54,152,275,393,85,42,1
91,167,51,144,271,383,88,41,1
83,183,51,138,222,384,86,36,1
79,181,43,120,181,406,84,35,1
78,193,36,104,198,381,79,34,1
76,170,32,121,190,344,86,37,1
81,178,33,128,203,358,88,37,1
77,178,38,122,187,364,83,38,1
79,182,45,142,183,305,79,39,1
73,170,44,166,173,328,82,40,1
73,171,53,180,179,326,81,35,1
70,170,52,178,185,337,75,35,1
69,172,48,181,219,349,82,36,1
70,160,45,164,211,318,73,33,1
59,150,47,143,247,292,70,33,1
56,169,35,109,233,290,65,36,1
55,166,41,105,218,284,66,36,1
55,141,43,108,185,319,61,30,1
62,153,42,130,201,333,75,33,1
73,198,46,136,153,392,82,33,1
74,185,46,135,149,394,80,30,1
70,184,42,141,152,388,78,30,1
89,187,45,147,176,339,80,35,1
101,184,51,157,166,373,69,37,1
101,132,48,167,167,324,59,37,1
114,141,50,180,176,340,66,45,1
116,137,52,181,177,344,69,45,1
108,135,50,181,156,362,63,44,1
100,153,46,176,157,341,70,45,1
106,182,48,175,155,351,76,44,1
101,176,51,169,151,331,76,37,1
99,176,50,183,146,318,81,37,1
101,187,52,177,148,341,85,40,1
94,172,52,170,134,361,87,36,1
88,146,51,164,140,347,88,38,1
75,155,45,182,193,368,88,40,1
80,172,47,174,193,361,81,40,1
92,171,44,175,199,356,79,37,1
93,173,41,161,220,309,72,36,1
98,196,46,171,215,315,66,38,1
102,192,47,161,169,367,69,37,1
101,183,44,145,177,405,68,37,1
78,164,43,148,170,389,64,34,1
80,171,44,159,158,407,61,34,1
76,158,40,139,167,495,65,30,1
70,158,38,142,165,437,55,31,1
73,156,38,159,162,414,54,31,1
93,167,41,157,180,397,60,37,1
92,162,42,157,175,425,63,37,1
81,140,37,151,160,318,57,35,1
80,123,36,138,171,317,58,36,1
83,149,38,126,184,344,59,36,1
83,159,46,141,191,403,56,34,1
79,163,42,135,193,347,52,34,1
93,166,46,171,207,341,49,38,1
96,181,48,182,233,345,50,39,1
98,169,55,206,256,365,75,40,1
89,149,50,195,249,329,79,39,1
92,148,49,193,236,336,81,41,1
110,193,53,166,228,357,84,43,1
113,181,57,154,212,404,84,44,1
108,187,52,143,165,369,67,42,1
112,202,55,178,149,359,68,44,1
121,214,56,175,191,420,71,41,1
100,193,56,189,201,442,87,35,1
96,192,56,215,186,418,92,34,1
96,178,55,202,187,452,90,37,1
95,186,55,190,202,462,86,35,1
86,167,56,221,174,456,105,35,1
83,146,52,211,166,442,96,37,1
80,167,47,181,165,450,95,35,1
91,186,46,181,176,396,95,37,1
81,164,42,173,170,382,104,39,1
84,169,45,138,167,382,89,45,1
98,193,48,150,183,361,103,46,1
104,195,49,157,183,333,101,47,1
101,195,51,151,187,352,103,47,1
101,197,54,165,204,349,94,44,1
98,194,49,164,210,277,86,38,1
81,211,53,162,216,350,77,38,1
80,223,56,201,236,381,86,39,1
70,232,55,208,258,378,90,37,1
68,245,63,267,245,579,108,41,1
93,275,67,328,278,658,123,46,1
125,272,78,405,273,663,120,53,1
141,259,92,611,321,701,116,57,1
159,265,102,709,300,749,120,60,1
163,281,104,711,311,630,109,58,1
161,272,108,750,289,572,96,57,1
139,260,100,735,306,561,91,49,1
124,290,88,612,235,513,91,46,1
125,277,81,516,248,518,99,53,1
133,265,81,518,237,515,95,53,1
131,248,73,439,238,517,100,50,1
129,244,70,421,224,502,106,51,1
128,289,69,377,265,513,109,53,1
108,298,64,362,339,489,98,44,1
95,288,53,346,351,478,103,46,1
90,318,53,325,350,503,100,48,1
111,323,54,332,353,555,98,48,1
116,252,56,316,326,529,97,42,1
117,243,53,315,257,482,110,44,1
117,242,49,294,251,524,108,40,1
136,214,57,308,260,492,110,39,1
124,245,63,325,274,408,121,42,1
134,271,61,388,292,446,116,45,1
135,292,70,393,297,489,101,43,1
139,330,77,384,282,464,102,49,1
135,335,71,401,280,505,94,51,1
146,319,66,401,267,552,80,52,1
137,305,78,372,303,551,87,54,1
139,283,81,367,296,542,97,60,1
135,276,80,377,302,523,104,57,1
123,302,88,460,366,512,117,55,1
136,342,89,435,355,464,121,64,1
136,337,78,410,338,437,116,61,1
149,347,68,407,340,584,120,60,1
162,327,70,444,331,631,110,60,1
160,297,64,344,252,634,95,58,1
158,246,66,337,259,668,84,49,1
157,247,68,326,237,674,87,48,1
166,244,68,319,242,658,95,56,1
164,247,63,257,260,685,109,61,1
180,269,78,252,267,699,113,63,1
164,314,77,294,268,731,127,61,1
158,306,78,300,269,796,128,58,1
139,302,79,310,275,724,110,47,1
125,314,79,322,260,697,97,41,1
110,315,65,359,266,665,104,55,1
106,279,64,366,278,729,101,57,1
122,348,65,354,270,718,105,64,1
132,338,62,359,243,733,117,66,1
144,341,60,339,250,735,119,69,1
148,319,55,281,266,758,116,63,1
150,310,52,222,247,705,122,60,1
140,260,52,287,261,630,121,58,1
122,256,55,264,262,617,120,56,1
107,269,55,290,299,554,118,53,1
87,275,62,339,288,610,120,47,1
102,281,61,339,285,584,108,54,1
104,306,58,307,266,649,103,50,1
106,326,57,352,320,671,89,48,1
117,298,62,383,298,694,92,50,1
111,294,57,348,279,638,93,52,1
120,284,67,358,301,609,93,51,1
123,241,73,397,331,574,92,52,1
123,265,80,375,311,496,92,52,1
117,250,76,328,340,465,84,46,1
131,257,78,350,378,512,91,49,1
116,268,76,379,375,538,91,43,1
118,263,71,365,361,496,92,42,1
130,221,65,362,343,621,108,46,1
139,235,66,362,300,661,114,50,1
138,239,64,369,267,638,108,45,1
131,276,60,342,257,614,113,45,1
127,282,54,315,252,649,111,45,1
115,288,59,311,233,578,98,40,1
110,280,57,311,235,613,108,39,1
107,271,55,278,211,577,101,38,1
107,212,54,262,202,532,87,36,1
100,191,59,234,179,504,87,36,1
118,208,57,250,209,453,99,42,1
126,206,56,243,223,345,85,45,1
127,208,58,244,216,325,90,48,1
143,230,57,233,249,327,92,54,1
152,242,55,249,261,294,90,56,1
146,201,51,202,237,415,78,58,1
138,221,53,195,219,424,71,56,1
131,252,53,208,242,427,66,54,1
119,267,53,217,202,489,78,48,1
121,303,55,197,209,527,85,47,1
113,308,57,297,260,467,86,42,1
108,298,53,304,286,562,93,41,1
115,283,50,289,266,548,91,42,1
114,291,49,309,300,557,88,44,1
108,247,45,325,304,610,90,49,1
110,249,43,300,260,602,98,50,1
110,271,43,309,232,580,99,52,1
106,256,48,307,245,631,107,53,1
113,207,51,290,204,594,108,55,1
133,251,62,318,183,555,111,64,1
135,272,63,320,185,533,106,63,1
142,264,67,352,229,494,115,65,1
143,287,68,372,254,549,129,69,1
141,312,70,382,267,563,129,70,1
130,292,66,393,290,561,121,63,1
125,276,69,366,298,594,115,60,1
127,276,65,343,310,564,103,58,1
127,265,63,348,298,642,92,53,1
120,258,62,331,289,651,82,47,1
119,264,62,301,286,644,84,43,1
123,268,65,315,294,605,84,41,1
113,253,69,325,287,656,93,38,1
107,301,68,288,282,496,93,44,1
104,288,67,294,273,460,96,45,1
91,263,63,273,254,432,97,43,1
98,343,55,259,249,496,94,43,1
94,342,51,213,192,440,82,42,1
103,287,56,211,171,410,61,35,1
107,302,57,195,176,397,58,35,1
110,298,54,178,191,437,61,39,1
97,185,55,155,157,362,65,43,1
98,210,55,191,182,401,69,46,1
88,201,49,192,179,484,67,43,1
93,189,49,206,230,505,70,41,1
105,262,52,239,214,491,70,37,1
125,275,53,239,229,560,73,40,1
128,286,52,239,223,538,73,43,1
135,334,58,296,233,518,78,48,1
132,329,56,301,191,507,78,49,1
128,280,57,290,195,469,76,55,1
121,311,54,282,183,444,79,55,1
120,300,55,266,167,460,80,51,1
121,260,54,214,170,417,84,58,1
126,265,54,215,187,469,100,62,1
125,282,60,207,184,492,99,58,1
121,246,62,229,202,451,94,56,1
120,258,62,228,236,394,91,58,1
120,248,59,227,232,449,91,47,1
115,248,58,200,218,412,72,44,1
116,233,52,200,218,452,69,42,1
125,223,48,165,213,540,83,47,1
123,198,49,142,182,568,89,45,1
118,295,51,150,185,635,104,51,1
124,288,50,164,196,650,104,50,1
124,308,53,177,188,661,106,54,1
112,314,56,184,201,589,98,49,1
107,306,56,194,201,699,94,45,1
112,232,52,199,202,609,68,43,1
106,242,51,200,197,609,73,43,1
93,206,48,188,207,622,73,38,1
104,231,47,185,180,665,70,40,1
105,224,52,196,181,527,71,44,1
101,235,54,185,195,642,102,49,1
119,233,57,176,194,653,106,50,1
135,249,55,165,196,629,103,52,1
125,254,59,173,221,623,107,52,1
132,283,53,171,218,648,114,52,1
145,262,51,174,220,525,88,49,1
133,339,53,193,217,572,82,48,1
134,364,63,201,203,576,94,52,1
151,346,61,201,189,528,97,55,1
161,354,69,183,216,507,89,63,1
154,351,67,168,192,504,102,63,1
157,273,70,171,222,379,105,70,1
173,263,61,178,233,408,100,71,1
162,255,61,181,228,420,97,69,1
146,226,59,197,216,429,100,62,1
142,317,60,222,231,449,91,59,1
134,315,54,199,197,468,90,50,1
91,287,53,186,210,393,85,41,1
154,317,57,173,207,393,79,50,1
168,313,64,163,189,420,65,52,1
175,236,63,133,183,406,76,59,1
203,259,64,150,189,380,79,63,1
207,273,67,169,178,434,85,68,1
166,265,61,189,184,494,97,61,1
153,289,47,186,211,479,112,58,1
144,278,47,212,210,490,111,54,1
115,251,53,213,207,577,112,49,1
126,245,57,204,202,521,109,51,1
124,222,60,211,199,468,105,50,1
124,199,59,206,183,431,90,50,1
127,202,60,214,182,500,88,52,1
119,225,59,218,185,437,81,53,1
100,220,51,219,178,459,83,46,1
99,220,51,206,202,499,82,44,1
97,235,51,213,188,494,84,45,1
91,249,53,187,198,459,82,40,1
111,262,48,210,195,460,87,49,1
112,289,49,212,211,439,83,50,1
113,275,49,202,180,367,82,52,1
117,282,53,203,242,440,91,48,1
116,268,54,202,225,410,93,48,1
96,244,55,179,231,375,86,40,1
107,224,59,167,221,372,86,41,1
103,261,69,184,242,523,91,39,1
97,228,66,184,210,479,95,43,1
109,267,69,171,211,491,85,46,1
107,267,70,159,216,533,90,47,1
108,271,66,165,227,681,111,47,1
108,252,51,152,211,626,105,46,1
128,279,59,165,190,633,97,44,1
127,242,50,178,218,622,98,39,1
134,242,57,180,213,614,104,36,1
124,233,56,173,200,437,91,40,1
129,249,58,192,227,367,95,41,1
109,252,54,194,239,411,96,43,1
108,280,57,193,221,396,96,44,1
93,288,53,207,211,461,93,47,1
117,304,58,207,213,480,83,47,1
116,301,57,197,189,565,84,47,1
129,284,57,202,179,537,99,50,1
131,283,59,200,172,576,101,51,1
156,265,55,185,179,561,105,56,1
140,254,62,195,181,568,112,56,1
146,249,65,184,172,503,111,60,1
149,253,69,184,198,498,97,56,1
141,238,69,195,190,492,105,57,1
121,251,69,188,193,438,100,52,1
121,239,60,181,230,496,97,48,1
114,299,63,192,228,476,93,45,1
95,285,55,166,214,523,96,43,1
96,277,54,153,225,488,92,43,1
96,280,54,150,222,470,90,42,1
97,291,51,143,181,438,87,47,1
95,255,46,180,208,532,100,45,1
107,271,46,195,197,463,98,47,1
107,276,46,196,186,503,99,48,1
100,278,45,207,202,549,106,47,1
111,266,50,237,209,510,117,53,1
115,230,53,203,219,454,111,52,1
104,226,61,208,224,460,108,53,1
108,215,59,202,230,396,104,50,1
124,202,59,187,210,326,97,51,1
116,230,62,161,241,372,84,40,1
110,244,62,158,217,360,84,41,1
109,234,60,149,221,463,95,38,1
101,226,62,145,234,472,92,36,1
90,257,62,219,282,476,96,34,1
84,239,61,224,246,452,98,36,1
81,221,59,229,276,437,93,37,1
102,224,53,221,291,359,85,39,1
104,256,52,229,275,363,85,41,1
99,214,49,163,233,381,79,40,1
98,203,43,148,250,382,86,42,1
101,210,47,148,291,394,88,40,1
92,240,47,140,292,419,86,42,1
98,219,44,134,302,425,86,45,1
98,227,47,136,299,417,89,45,1
