27,28,32,29,181,78,195,36,2
27,33,30,27,190,82,184,35,2
23,34,32,27,203,79,186,35,2
25,38,35,27,225,83,202,34,2
23,35,36,27,221,82,201,31,2
21,36,34,31,241,102,165,30,2
22,32,34,31,237,108,177,30,2
21,29,29,30,222,109,174,29,2
20,23,25,31,228,107,169,29,2
21,21,26,32,228,110,153,25,2
20,18,25,31,205,93,152,25,2
18,18,23,32,203,79,146,27,2
21,23,28,32,239,100,154,27,2
19,24,30,29,201,105,142,26,2
19,25,28,29,209,98,148,29,2
21,25,29,29,195,95,149,29,2
22,26,29,29,202,99,151,28,2
21,25,25,30,158,83,149,29,2
22,28,29,29,194,75,150,30,2
22,28,29,27,193,80,159,28,2
20,28,29,26,210,82,156,28,2
20,28,29,27,208,82,146,25,2
19,25,29,26,204,75,135,25,2
19,20,24,27,152,73,129,24,2
18,19,23,27,220,73,151,26,2
20,18,28,28,211,76,164,26,2
19,20,32,30,214,69,163,27,2
19,27,36,31,209,66,162,26,2
19,32,40,32,218,66,157,29,2
18,32,51,32,141,64,133,27,2
18,34,52,34,212,82,143,29,2
18,36,51,30,207,86,149,28,2
18,34,49,34,212,86,157,28,2
18,30,46,32,199,90,183,25,2
19,35,44,33,194,89,175,24,2
20,39,40,31,124,67,162,23,2
21,42,48,32,177,74,168,24,2
21,42,50,33,181,76,182,27,2
22,47,54,33,181,73,160,28,2
22,48,63,32,190,73,152,27,2
20,56,69,31,180,69,142,26,2
22,103,103,31,148,61,122,25,2
23,129,149,31,135,64,116,26,2
25,159,157,31,132,61,115,26,2
32,251,233,40,115,58,108,30,2
44,403,363,84,108,61,106,43,2
58,431,411,95,63,54,102,47,2
67,474,484,120,61,44,57,51,2
70,488,551,132,59,43,47,54,2
74,484,589,145,60,44,43,58,2
73,455,555,131,78,43,43,54,2
66,491,583,132,84,47,44,53,2
61,537,632,132,96,48,41,50,2
75,570,705,131,96,50,42,52,2
79,605,680,125,103,47,44,52,2
78,562,698,140,100,43,41,49,2
95,694,704,145,96,40,41,57,2
97,656,688,138,159,44,42,59,2
89,672,630,139,175,49,40,57,2
93,700,670,164,187,55,44,63,2
106,818,703,160,248,62,46,66,2
105,742,720,163,265,80,72,67,2
108,797,695,198,245,86,75,69,2
112,865,715,210,278,91,79,75,2
116,920,809,224,283,92,79,68,2
112,935,872,254,234,95,84,72,2
198,997,949,282,223,93,76,102,2
208,1007,958,283,217,93,83,117,2
217,1011,988,283,159,88,88,120,2
261,1060,932,276,140,93,98,150,2
267,1019,860,271,130,86,99,153,2
223,940,771,242,115,75,90,141,2
226,898,766,224,132,66,89,137,2
222,893,775,355,159,71,84,134,2
192,883,780,349,240,71,79,114,2
189,874,853,359,254,74,78,116,2
195,939,876,362,268,77,83,113,2
200,962,901,370,287,81,82,110,2
205,973,866,278,283,81,85,112,2
186,876,859,310,261,78,79,101,2
186,912,802,294,309,87,80,96,2
183,912,828,307,328,107,74,93,2
172,910,766,307,364,143,81,96,2
178,921,782,292,363,144,81,106,2
171,965,813,268,333,143,80,104,2
174,946,826,264,283,139,80,111,2
156,868,778,241,257,126,90,120,2
151,886,876,324,160,87,82,115,2
132,843,828,338,217,123,81,108,2
138,784,813,354,265,126,84,111,2
143,773,852,372,259,127,91,103,2
139,799,928,407,263,130,88,88,2
133,810,854,331,347,152,87,82,2
138,800,898,326,339,140,90,86,2
150,866,910,299,310,153,98,89,2
141,831,842,287,350,164,90,87,2
161,934,763,287,363,163,91,100,2
160,904,754,303,323,162,94,101,2
151,867,695,281,319,181,91,92,2
141,819,616,299,322,172,84,90,2
137,877,630,287,309,166,82,92,2
115,813,617,275,298,163,82,83,2
112,807,655,272,285,140,78,81,2
118,848,732,294,259,89,77,85,2
122,868,756,280,265,76,73,91,2
118,839,756,269,252,64,71,85,2
118,776,799,235,290,78,63,81,2
116,807,759,247,280,80,67,80,2
115,775,696,220,297,108,66,77,2
126,751,749,247,302,108,77,82,2
126,720,770,271,290,104,84,84,2
124,714,724,296,250,95,86,82,2
137,664,813,285,262,94,84,89,2
135,619,866,327,285,69,83,88,2
111,557,873,329,294,89,70,72,2
119,636,857,307,306,92,68,75,2
122,645,811,287,316,116,65,76,2
109,616,774,273,331,115,61,69,2
122,697,726,211,294,113,65,72,2
119,714,628,248,303,127,64,72,2
111,685,589,250,294,127,61,68,2
110,713,632,246,285,105,62,66,2
115,743,589,261,226,105,70,65,2
99,707,617,257,229,103,67,62,2
100,723,647,182,192,67,68,59,2
97,756,739,242,190,61,64,58,2
98,759,736,239,179,59,60,62,2
99,783,762,238,184,55,56,71,2
122,815,706,245,187,57,56,75,2
130,901,667,248,200,60,53,76,2
137,889,623,203,220,60,56,76,2
136,878,622,258,238,62,56,71,2
148,915,616,255,245,101,58,64,2
131,887,654,255,268,104,55,57,2
128,847,730,274,259,106,66,60,2
123,784,745,271,239,106,66,61,2
123,743,764,291,229,106,65,65,2
107,741,789,296,244,73,61,63,2
102,736,813,295,235,73,62,59,2
108,710,787,274,226,70,52,67,2
119,790,721,294,222,70,56,72,2
118,835,818,269,211,65,57,70,2
113,742,784,254,183,62,61,69,2
115,742,732,262,172,54,62,73,2
99,713,729,263,165,48,60,61,2
78,621,776,238,182,46,55,49,2
76,576,638,232,213,51,55,50,2
86,623,639,230,221,55,56,56,2
99,748,717,224,209,55,56,59,2
99,740,735,220,213,58,60,65,2
102,724,695,216,210,58,60,72,2
105,734,768,185,181,54,60,73,2
107,736,741,179,212,50,61,77,2
94,607,707,206,285,56,61,75,2
96,632,669,225,298,60,63,73,2
91,631,655,231,302,61,64,68,2
86,701,627,217,301,61,61,67,2
70,683,690,228,328,63,56,59,2
74,709,686,204,279,54,54,55,2
76,675,662,209,269,49,50,53,2
94,746,727,200,257,46,54,61,2
96,715,693,192,254,51,58,64,2
99,726,654,191,212,45,54,61,2
93,673,646,181,212,46,53,61,2
100,673,723,143,203,42,52,67,2
88,589,711,221,200,46,53,66,2
87,546,751,225,202,40,53,64,2
88,488,770,225,171,41,57,66,2
98,551,727,237,131,41,62,77,2
88,538,668,240,139,45,64,74,2
86,568,709,170,179,48,62,70,2
83,533,666,159,198,48,61,72,2
80,547,678,156,192,51,62,74,2
71,504,719,144,195,52,57,62,2
69,503,761,143,187,100,55,59,2
67,481,747,164,172,117,52,59,2
68,478,789,181,175,125,60,56,2
62,536,817,172,177,125,56,46,2
62,497,861,165,178,126,57,51,2
64,455,816,170,172,94,61,56,2
80,550,773,149,142,69,60,60,2
86,585,742,138,236,90,61,65,2
93,590,684,146,241,90,66,68,2
93,646,616,160,245,92,66,66,2
93,699,644,156,244,88,66,63,2
96,678,641,178,248,91,73,72,2
90,652,682,186,132,63,74,72,2
91,664,664,190,112,61,71,80,2
97,656,671,187,99,58,73,83,2
99,644,622,190,108,61,68,83,2
92,615,707,176,99,57,72,78,2
91,629,693,185,89,52,65,75,2
88,586,672,182,93,48,64,71,2
79,576,724,181,90,45,64,68,2
80,554,767,175,89,47,74,74,2
75,590,726,173,96,46,63,66,2
77,620,670,158,96,56,69,63,2
73,579,674,150,88,57,68,54,2
85,616,682,164,89,61,66,50,2
78,641,661,172,77,58,63,42,2
76,599,595,172,112,60,64,46,2
74,556,655,164,123,48,57,49,2
79,588,706,176,165,52,57,51,2
77,545,665,159,188,52,59,57,2
78,563,702,159,194,48,61,65,2
79,567,748,168,192,48,61,64,2
88,632,716,175,192,49,60,68,2
89,689,761,170,179,45,67,76,2
78,673,806,165,181,45,65,74,2
83,681,767,155,180,51,57,71,2
83,682,783,148,161,47,56,69,2
75,638,797,145,153,47,63,67,2
65,569,755,144,131,48,55,58,2
68,565,692,155,100,45,55,62,2
70,491,705,162,104,43,64,68,2
76,464,678,157,123,43,67,70,2
75,439,699,159,180,41,62,67,2
74,402,710,167,185,38,65,66,2
79,456,687,160,203,40,66,59,2
73,448,665,163,216,39,58,48,2
76,515,652,175,217,42,60,52,2
80,531,635,169,184,44,62,59,2
81,524,611,182,185,45,61,63,2
76,494,595,174,159,42,60,63,2
93,526,717,208,151,44,64,71,2
86,560,692,196,156,51,62,66,2
95,571,725,221,148,56,68,65,2
97,583,708,210,154,58,68,66,2
101,607,832,218,179,63,70,69,2
83,589,793,193,174,64,65,60,2
83,565,797,201,169,61,63,59,2
67,543,723,197,182,59,51,52,2
70,650,778,198,190,57,52,51,2
70,610,697,195,183,51,53,48,2
77,592,713,204,172,49,56,53,2
77,550,794,208,162,47,55,56,2
77,593,832,187,150,45,59,56,2
84,512,885,303,158,54,58,58,2
80,547,876,328,144,56,57,57,2
79,591,817,329,147,55,57,61,2
76,562,748,337,147,53,62,62,2
76,533,753,353,162,52,57,62,2
67,532,730,267,145,45,55,60,2
70,550,778,261,165,45,53,62,2
71,557,768,293,178,51,53,57,2
73,569,779,276,182,53,50,55,2
74,595,784,291,164,52,57,59,2
70,569,678,291,159,48,58,56,2
67,537,597,272,162,46,60,53,2
74,534,603,223,151,41,60,61,2
78,536,715,228,144,39,59,59,2
81,527,679,240,167,42,53,55,2
103,579,782,256,164,45,56,64,2
102,550,806,256,139,49,54,66,2
94,489,818,249,153,48,52,54,2
88,487,715,242,170,48,48,54,2
84,431,752,198,151,45,47,58,2
61,448,698,164,149,44,43,50,2
69,498,725,215,155,42,45,55,2
73,561,760,245,141,43,46,63,2
73,564,770,250,138,46,54,68,2
74,583,736,261,140,46,60,69,2
82,510,736,271,139,48,59,69,2
75,492,733,229,144,46,57,63,2
82,552,711,209,160,44,52,57,2
91,558,757,264,138,45,49,59,2
93,553,843,258,139,49,44,56,2
89,563,794,241,147,46,46,58,2
99,621,888,262,142,46,45,69,2
95,614,882,252,120,46,51,69,2
87,620,828,192,117,41,47,62,2
89,616,768,173,103,39,53,67,2
85,643,823,224,98,38,51,66,2
89,610,717,217,96,45,64,69,2
84,547,730,231,153,57,60,69,2
85,570,822,249,160,59,60,70,2
82,610,791,284,165,61,56,68,2
83,600,766,259,163,63,57,67,2
70,635,748,249,160,60,45,56,2
75,663,795,245,114,54,46,58,2
74,616,697,238,112,52,48,57,2
76,563,720,211,114,52,47,58,2
72,543,716,199,109,49,45,56,2
73,490,697,196,113,48,45,55,2
70,458,613,181,106,44,52,52,2
72,511,655,188,109,45,50,54,2
76,553,746,167,144,43,56,58,2
79,580,748,180,178,44,60,62,2
77,603,750,210,183,44,59,63,2
83,584,756,224,187,46,55,65,2
82,527,775,275,187,46,54,69,2
77,497,669,295,159,44,49,66,2
90,494,654,291,120,46,47,68,2
96,433,723,283,102,46,52,73,2
95,418,699,297,115,52,54,72,2
97,499,668,243,130,58,58,71,2
103,519,662,215,190,66,63,79,2
99,480,676,214,200,66,62,80,2
105,566,606,200,197,68,63,77,2
105,582,668,166,191,63,62,80,2
104,543,674,158,175,58,62,79,2
101,505,729,176,150,55,58,73,2
96,561,737,210,157,54,58,68,2
82,533,721,213,175,50,57,63,2
81,553,748,223,195,50,58,59,2
83,560,705,224,213,53,57,65,2
79,608,685,222,200,56,59,63,2
79,561,651,167,181,59,61,62,2
82,495,680,199,205,62,60,68,2
79,441,653,215,194,66,61,72,2
80,481,664,211,185,66,58,65,2
79,507,682,224,213,66,57,64,2
101,595,739,243,239,71,60,71,2
105,621,707,211,211,70,59,79,2
116,673,758,184,202,70,58,78,2
120,651,789,198,213,77,61,83,2
130,759,801,193,219,81,60,89,2
121,749,790,186,197,81,56,93,2
126,807,828,191,196,85,56,84,2
119,831,747,188,199,85,57,86,2
126,826,757,195,183,81,67,95,2
121,707,749,194,168,70,68,91,2
117,688,750,202,207,71,69,87,2
109,645,780,212,215,71,69,87,2
111,650,833,225,226,65,70,89,2
106,685,858,228,248,63,63,79,2
111,700,867,230,250,66,61,79,2
108,657,855,275,229,61,59,75,2
104,689,872,281,222,59,60,74,2
113,663,835,297,218,59,54,75,2
113,641,775,298,226,61,55,77,2
104,667,771,292,207,58,55,74,2
121,710,828,272,198,59,59,76,2
123,636,759,308,200,56,64,80,2
113,612,787,290,206,61,68,80,2
112,593,786,271,206,67,65,76,2
114,523,751,278,197,77,67,78,2
100,535,752,263,190,80,64,79,2
96,589,775,210,215,95,57,71,2
106,673,747,219,199,95,54,67,2
104,682,763,231,159,89,61,68,2
103,720,753,231,189,85,63,69,2
99,683,687,242,207,83,66,71,2
102,671,671,240,197,64,66,72,2
88,551,660,228,218,69,71,72,2
88,570,646,228,227,76,63,67,2
82,506,678,263,222,69,63,65,2
88,551,720,245,213,66,60,59,2
82,556,672,246,238,68,60,60,2
86,602,701,278,228,61,50,56,2
83,592,766,325,219,49,50,58,2
80,577,752,309,226,56,45,55,2
69,541,702,322,224,55,45,54,2
75,524,741,320,172,53,44,52,2
66,532,686,288,204,47,45,50,2
62,526,628,268,229,55,48,51,2
66,552,614,251,207,48,49,52,2
67,556,581,230,231,47,52,51,2
64,554,586,236,235,48,59,50,2
69,509,611,261,200,49,60,54,2
65,590,623,223,171,45,60,52,2
59,586,576,229,159,46,61,49,2
60,547,618,255,261,70,59,52,2
56,505,623,258,264,70,58,50,2
59,512,622,267,266,72,57,57,2
62,380,651,260,268,70,56,57,2
67,388,659,244,272,68,55,59,2
64,436,665,245,197,53,55,58,2
68,470,640,233,256,58,55,62,2
60,466,634,212,262,58,52,55,2
61,490,626,307,274,63,54,52,2
60,526,696,311,266,64,51,50,2
61,507,681,297,227,56,48,47,2
61,498,661,330,149,47,42,41,2
66,516,672,354,147,46,48,46,2
70,570,671,292,243,54,42,48,2
68,516,620,305,260,57,49,48,2
70,508,606,304,276,58,49,46,2
69,541,689,285,292,64,51,50,2
71,519,659,257,286,67,52,49,2
76,442,586,246,191,55,60,59,2
78,487,596,256,196,59,62,60,2
85,499,639,298,191,67,68,70,2
92,492,556,281,177,63,69,74,2
87,505,615,278,172,60,68,74,2
77,520,638,274,171,64,64,67,2
80,561,660,301,155,62,61,66,2
71,573,664,271,171,87,57,61,2
70,575,733,297,167,92,59,58,2
80,626,703,298,167,96,62,60,2
80,631,690,300,166,96,60,61,2
83,580,652,308,199,123,58,63,2
83,628,592,287,172,128,55,61,2
78,590,512,262,163,147,47,59,2
68,510,491,258,172,151,41,53,2
71,519,528,313,167,155,43,50,2
75,539,565,256,122,143,47,58,2
74,448,725,260,154,133,47,58,2
73,493,738,262,193,117,50,58,2
77,562,821,276,185,108,53,62,2
82,556,833,215,185,105,49,66,2
73,564,805,210,175,88,44,55,2
79,576,678,210,169,82,51,56,2
82,545,696,202,133,80,55,61,2
88,539,633,171,142,122,55,60,2
83,539,596,162,170,126,56,58,2
79,547,601,228,213,137,57,62,2
77,562,656,237,216,147,58,61,2
73,630,723,233,217,150,53,53,2
67,607,709,270,212,119,57,62,2
65,618,735,273,222,115,55,60,2
70,582,728,233,186,123,53,60,2
73,620,763,231,220,116,50,66,2
74,590,657,291,224,106,55,66,2
68,555,642,255,227,109,54,56,2
76,559,650,279,216,105,57,59,2
72,536,654,295,226,84,59,57,2
69,486,580,286,171,95,63,54,2
67,418,595,237,221,98,56,57,2
74,466,672,258,230,95,53,58,2
66,391,712,242,216,98,58,58,2
67,482,736,249,205,95,61,59,2
64,551,720,251,217,62,56,53,2
61,575,723,249,214,63,56,49,2
55,565,658,247,210,69,62,55,2
58,596,654,237,208,70,63,56,2
64,557,671,241,208,70,60,59,2
62,463,684,245,233,74,64,57,2
63,460,675,252,220,82,65,58,2
60,456,663,264,224,80,59,59,2
60,431,612,284,233,78,51,55,2
56,459,613,245,233,74,58,55,2
60,495,583,252,208,70,56,63,2
70,548,621,255,200,57,59,69,2
70,515,632,258,198,56,59,65,2
74,535,620,246,190,98,63,73,2
75,512,580,261,193,100,54,71,2
78,507,593,336,181,103,54,74,2
72,548,577,333,158,103,49,70,2
82,553,647,313,168,103,50,71,2
81,600,643,314,204,67,47,64,2
77,589,664,314,211,70,54,66,2
83,662,740,248,211,99,50,59,2
82,603,821,262,206,102,49,56,2
74,638,778,257,185,98,48,48,2
72,624,852,248,174,98,54,51,2
81,636,835,229,189,99,54,51,2
82,624,806,298,199,69,55,54,2
95,625,742,283,198,60,57,57,2
98,681,756,290,232,62,57,67,2
97,664,684,286,241,66,56,77,2
100,684,777,332,251,62,49,76,2
90,648,725,260,240,62,50,73,2
81,638,686,257,231,61,51,77,2
86,585,734,260,208,59,52,76,2
96,610,776,268,201,50,48,66,2
88,581,682,239,196,53,49,64,2
94,586,786,238,200,58,50,65,2
90,570,771,246,205,60,47,58,2
83,564,748,247,201,59,49,48,2
71,543,721,279,218,64,52,45,2
71,543,730,262,201,65,55,45,2
67,501,664,259,200,64,57,45,2
68,520,742,291,201,62,55,43,2
78,548,705,326,240,66,55,48,2
78,522,651,305,244,68,52,48,2
75,502,624,302,233,94,49,48,2
77,500,629,312,239,93,44,49,2
80,474,574,307,237,114,122,53,2
70,408,549,264,196,119,131,54,2
75,413,601,260,142,123,131,52,2
74,424,678,271,182,110,133,49,2
78,442,670,366,178,132,136,52,2
75,476,670,345,179,119,76,56,2
80,530,731,342,199,117,60,50,2
79,547,729,348,221,110,67,53,2
84,624,778,365,216,127,63,53,2
75,611,816,255,218,110,63,52,2
81,641,804,257,250,110,63,53,2
73,604,792,245,248,108,63,54,2
73,615,831,231,226,108,62,55,2
77,570,726,194,218,76,67,67,2
78,569,642,176,254,65,61,68,2
74,534,671,160,220,55,62,66,2
81,559,618,178,208,48,59,69,2
83,527,567,200,218,46,57,70,2
85,508,607,199,234,53,51,65,2
86,496,621,269,188,58,55,70,2
86,481,619,279,193,60,53,68,2
90,469,654,274,205,68,58,74,2
89,454,625,313,187,70,55,75,2
80,495,615,305,143,62,54,71,2
81,519,644,256,173,61,51,68,2
78,497,658,241,216,58,54,65,2
70,489,668,239,203,54,52,59,2
76,559,692,198,210,53,52,58,2
78,597,672,206,221,58,50,58,2
82,677,647,200,216,58,51,57,2
88,760,664,203,199,63,49,64,2
100,763,701,205,191,61,48,68,2
96,739,671,190,189,59,47,68,2
102,724,762,192,187,58,52,70,2
101,681,772,193,161,55,54,68,2
99,671,793,223,116,47,54,64,2
87,691,786,236,161,51,57,62,2
94,760,797,235,187,58,61,66,2
88,715,736,242,193,64,61,69,2
85,782,766,292,201,62,59,68,2
82,758,737,284,213,63,59,68,2
88,732,654,293,188,64,57,65,2
78,627,655,289,188,58,58,62,2
82,626,709,291,206,52,56,58,2
91,532,664,248,209,53,57,59,2
99,500,609,226,203,51,54,57,2
96,534,684,276,282,57,53,60,2
99,648,674,263,271,56,51,57,2
95,672,613,263,264,53,47,55,2
89,645,600,252,267,52,48,54,2
92,686,650,264,276,61,51,58,2
102,744,640,255,241,66,54,60,2
102,704,723,265,237,66,53,59,2
103,689,722,247,216,66,55,61,2
111,731,731,251,205,65,57,68,2
107,702,711,239,191,58,57,70,2
93,647,709,211,139,41,56,67,2
96,656,598,244,141,43,59,69,2
100,650,632,247,148,42,60,75,2
91,655,783,255,186,58,56,68,2
87,638,795,291,189,57,56,66,2
101,662,802,258,194,59,55,70,2
102,645,861,245,205,70,56,74,2
102,657,807,249,211,72,58,70,2
99,596,704,234,231,65,59,74,2
97,595,682,199,239,70,59,72,2
95,621,703,197,238,72,57,70,2
86,621,718,153,250,64,59,63,2
88,666,771,157,248,73,60,67,2
86,673,764,216,215,75,58,62,2
88,659,758,210,204,100,59,63,2
83,600,707,215,199,100,65,63,2
90,570,652,245,165,102,68,69,2
85,525,633,253,168,95,65,65,2
85,520,596,301,144,94,68,72,2
82,547,677,309,188,65,69,72,2
79,554,754,310,195,63,64,70,2
78,584,729,310,197,55,52,70,2
77,571,717,301,203,55,54,74,2
76,571,742,246,226,56,51,68,2
76,541,701,244,279,63,45,66,2
75,529,614,247,286,62,48,64,2
72,513,643,225,295,64,51,66,2
69,535,716,230,285,62,52,62,2
73,527,750,188,269,60,55,64,2
76,630,763,201,213,61,57,67,2
77,610,813,197,188,60,58,73,2
91,657,854,206,177,73,58,72,2
92,649,806,199,205,78,56,70,2
87,662,772,240,219,76,59,67,2
91,587,807,244,198,69,58,66,2
94,602,783,259,204,71,59,65,2
83,503,756,298,198,56,57,59,2
81,505,727,304,167,50,59,59,2
83,498,720,276,162,47,52,57,2
74,478,733,264,162,44,50,55,2
84,471,680,329,157,43,46,61,2
83,485,743,305,161,46,51,67,2
87,458,766,302,155,44,48,67,2
86,456,755,330,193,46,50,69,2
90,521,718,359,210,48,50,69,2
75,496,742,284,230,46,48,56,2
74,514,680,263,233,46,39,47,2
69,537,730,280,237,47,44,50,2
77,545,758,283,231,50,44,50,2
73,514,720,246,234,49,43,52,2
73,590,751,264,216,55,46,54,2
68,631,771,275,212,54,47,54,2
72,668,751,268,213,55,41,49,2
72,717,751,233,179,55,40,47,2
73,703,758,251,154,58,46,54,2
78,629,718,242,162,55,46,57,2
83,604,686,233,165,55,50,64,2
94,527,637,216,163,55,57,79,2
88,493,639,233,181,60,60,81,2
94,509,586,287,177,55,54,78,2
92,536,602,284,171,56,58,78,2
92,543,619,286,167,55,56,75,2
81,542,630,295,178,56,52,58,2
86,505,614,289,146,51,53,70,2
81,586,655,199,137,54,55,69,2
77,609,652,258,148,51,52,70,2
85,662,684,265,172,56,58,77,2
83,680,720,256,174,55,57,79,2
74,701,744,247,184,58,56,66,2
76,647,725,279,189,59,59,67,2
80,690,774,218,190,59,60,64,2
70,602,766,260,187,55,54,54,2
70,599,705,262,198,53,55,60,2
79,612,651,293,210,48,57,66,2
76,651,678,278,226,47,51,64,2
75,616,650,283,245,61,48,66,2
76,640,625,242,267,85,49,67,2
82,673,657,246,254,103,48,69,2
80,640,670,225,245,106,45,64,2
92,682,666,237,232,106,49,70,2
87,627,642,240,216,98,53,67,2
92,694,684,236,185,85,52,67,2
86,663,667,231,193,64,52,58,2
84,684,657,212,191,60,52,61,2
72,612,645,261,182,62,57,58,2
75,634,644,275,161,63,56,60,2
72,579,652,269,168,55,60,66,2
90,603,639,292,178,59,60,73,2
87,588,669,324,182,56,60,69,2
93,556,667,268,187,52,61,74,2
93,582,678,249,183,51,60,69,2
91,544,608,273,204,55,56,62,2
74,502,626,298,197,55,55,57,2
84,522,624,272,191,57,57,64,2
76,507,615,283,199,54,51,58,2
72,464,574,272,202,54,48,59,2
72,517,582,245,160,50,47,62,2
76,537,571,192,157,48,50,59,2
67,514,547,169,163,46,49,59,2
68,543,555,141,158,48,47,59,2
66,534,577,151,197,56,52,59,2
65,560,585,176,200,61,56,56,2
60,539,631,173,198,58,55,55,2
56,590,716,272,204,56,53,44,2
56,604,784,301,206,66,56,44,2
65,624,835,316,188,60,54,52,2
65,544,831,307,216,61,54,53,2
73,557,816,345,210,63,65,63,2
82,508,810,315,211,63,72,70,2
94,466,765,292,209,56,75,84,2
91,471,737,281,218,56,76,82,2
89,471,736,279,208,53,77,83,2
83,555,740,224,212,55,67,74,2
81,562,689,216,196,55,61,73,2
75,666,650,213,188,53,54,58,2
77,666,606,214,161,49,51,56,2
84,705,629,221,163,51,50,62,2
85,641,610,213,204,51,50,64,2
82,648,669,230,215,51,49,60,2
74,567,733,234,220,50,53,53,2
76,541,799,249,222,51,51,51,2
84,585,770,246,199,46,54,50,2
80,587,782,259,148,43,54,48,2
80,573,716,220,183,42,54,49,2
83,589,645,230,193,50,61,57,2
80,616,630,264,208,49,60,57,2
64,559,650,265,210,50,56,50,2
77,639,648,258,218,54,60,61,2
83,670,720,244,194,54,65,62,2
89,663,748,233,201,56,63,63,2
96,653,774,193,178,56,69,68,2
107,687,794,178,184,53,72,69,2
103,635,819,218,173,53,70,66,2
99,673,792,216,164,54,64,64,2
103,699,787,220,152,51,63,70,2
100,700,798,213,158,50,56,68,2
91,726,764,234,149,58,56,74,2
88,708,794,203,153,58,52,68,2
86,613,743,205,159,59,56,72,2
72,541,722,199,151,57,49,67,2
83,633,671,186,158,56,53,69,2
81,546,664,165,157,49,47,62,2
86,519,579,149,155,46,52,65,2
89,564,692,145,139,54,56,64,2
89,586,709,155,250,64,61,62,2
82,528,678,154,258,67,70,60,2
78,536,709,164,258,71,77,64,2
71,557,701,163,274,70,76,61,2
72,518,610,166,276,64,74,63,2
73,532,717,168,197,56,72,61,2
62,475,709,159,223,53,63,56,2
68,481,673,151,236,49,57,58,2
73,506,695,151,223,49,62,66,2
90,523,719,158,223,54,65,75,2
90,498,635,156,210,52,63,76,2
94,511,683,161,196,56,66,78,2
89,488,668,167,204,59,63,71,2
86,480,665,188,217,64,64,69,2
66,504,624,191,216,59,59,60,2
71,520,670,196,210,56,59,60,2
71,535,652,195,174,50,57,58,2
73,588,762,195,191,52,63,61,2
81,579,748,178,169,53,58,60,2
80,574,747,183,163,52,58,57,2
74,560,682,183,167,54,60,53,2
68,562,674,179,179,53,59,53,2
76,555,548,183,130,45,59,54,2
70,564,546,188,142,49,56,52,2
70,536,600,172,155,48,58,48,2
72,520,644,179,160,54,55,47,2
76,493,659,180,145,56,62,50,2
71,442,818,174,144,65,59,51,2
69,444,841,174,167,65,66,57,2
68,502,797,185,171,66,62,60,2
72,556,764,167,184,63,67,68,2
69,567,715,176,189,69,68,68,2
66,567,549,246,186,62,66,65,2
62,522,539,264,161,54,61,62,2
62,452,533,269,163,56,63,59,2
55,407,516,267,136,54,59,52,2
57,407,668,291,137,43,55,55,2
57,410,661,239,148,42,56,56,2
57,457,654,220,155,49,58,59,2
59,484,696,233,156,50,66,60,2
59,466,707,234,171,55,69,61,2
56,481,597,223,171,57,67,55,2
56,495,627,240,167,55,63,52,2
66,503,633,235,156,50,67,51,2
69,506,628,209,134,50,65,56,2
70,497,601,210,137,47,60,55,2
71,486,681,180,155,48,59,57,2
76,501,645,185,177,52,65,57,2
67,456,645,185,171,51,61,53,2
65,476,659,179,188,48,54,46,2
65,491,717,175,189,56,58,48,2
66,498,627,230,197,54,57,44,2
65,487,633,210,201,57,55,44,2
68,507,617,218,207,57,53,51,2
69,478,638,241,201,57,55,53,2
70,521,619,251,190,48,51,52,2
67,520,658,219,167,48,51,54,2
65,490,675,213,153,42,51,58,2
66,521,721,256,228,52,55,56,2
76,510,642,235,227,56,59,58,2
80,462,631,233,232,56,71,63,2
79,442,591,229,227,56,75,68,2
87,459,605,248,237,55,79,73,2
85,386,567,204,180,46,76,73,2
74,456,669,293,183,40,72,72,2
67,424,656,297,183,38,60,70,2
80,530,720,309,189,39,61,74,2
74,558,699,303,160,41,55,71,2
83,569,653,301,145,42,58,71,2
82,501,581,212,133,43,60,70,2
95,522,628,201,165,51,63,70,2
86,418,576,166,181,53,57,61,2
86,367,584,143,181,51,55,58,2
75,399,648,130,177,47,48,57,2
98,431,727,152,177,57,52,66,2
88,472,721,218,167,60,52,65,2
85,449,703,226,142,55,52,65,2
85,447,670,228,166,60,54,68,2
86,501,648,226,181,65,59,68,2
59,485,554,236,186,55,55,59,2
55,465,553,188,177,58,53,59,2
51,456,574,227,203,60,51,57,2
49,460,624,238,203,56,53,52,2
46,504,693,263,213,53,48,46,2
52,539,681,252,215,57,48,46,2
55,591,662,246,196,46,51,43,2
57,613,672,204,214,55,52,45,2
64,626,648,233,210,57,50,50,2
65,581,576,218,193,58,54,49,2
61,584,581,230,186,55,53,47,2
62,528,579,251,198,54,52,51,2
64,515,570,249,163,47,57,50,2
56,478,590,223,155,45,58,50,2
66,480,609,240,151,41,53,52,2
67,503,625,218,153,45,57,58,2
75,483,596,186,163,45,56,60,2
77,557,618,191,207,53,54,59,2
75,562,573,172,204,53,53,57,2
69,572,585,132,204,56,60,63,2
69,535,638,232,205,55,58,57,2
70,537,754,235,194,55,60,57,2
68,469,735,231,139,44,59,57,2
68,467,744,235,165,40,72,58,2
67,366,731,244,181,42,70,55,2
68,357,702,196,190,40,69,55,2
58,373,623,241,184,44,69,58,2
75,433,615,252,179,44,75,64,2
78,458,632,253,181,52,61,61,2
77,475,601,253,191,50,59,58,2
76,458,577,221,188,53,59,60,2
77,456,544,180,198,48,55,52,2
59,406,613,157,203,52,47,47,2
64,383,595,210,190,49,43,51,2
64,371,616,201,158,50,42,53,2
64,393,640,214,204,47,42,49,2
64,373,651,229,195,48,43,49,2
63,388,583,244,190,44,44,49,2
62,442,633,197,175,39,45,52,2
61,493,628,250,182,41,44,50,2
61,503,596,250,148,45,50,55,2
63,546,643,234,171,48,47,56,2
64,526,697,225,171,53,46,58,2
57,482,660,229,185,54,50,52,2
53,500,685,172,180,53,53,54,2
51,481,756,207,211,53,47,51,2
51,481,758,206,216,50,51,55,2
57,492,682,205,232,49,51,56,2
57,497,697,204,235,51,48,59,2
63,485,732,231,243,57,46,60,2
65,504,684,217,195,54,47,62,2
61,485,661,212,210,66,47,58,2
59,506,671,274,202,66,51,61,2
58,529,696,274,195,63,52,56,2
53,504,626,252,191,56,52,52,2
53,483,613,226,196,56,58,54,2
56,485,662,228,179,48,57,56,2
56,459,662,223,212,47,53,51,2
64,471,700,228,206,47,56,55,2
66,490,719,237,202,48,58,57,2
64,503,688,242,201,47,54,55,2
64,568,631,252,170,39,55,52,2
65,581,627,197,180,36,59,50,2
57,546,536,198,178,39,57,46,2
66,544,489,203,175,40,56,44,2
67,547,520,220,176,49,53,44,2
66,456,526,233,176,48,52,51,2
64,479,552,285,124,49,49,54,2
67,482,570,280,147,50,51,52,2
59,451,571,268,150,49,48,53,2
57,429,607,296,176,47,49,51,2
58,423,539,295,178,52,53,54,2
62,472,525,246,163,53,55,56,2
61,461,547,259,148,52,53,57,2
60,479,605,267,152,51,57,59,2
65,477,638,271,113,47,62,61,2
66,481,695,277,134,46,60,58,2
60,394,734,264,139,47,59,54,2
56,510,726,249,199,52,61,54,2
62,492,700,271,197,53,64,63,2
58,547,651,216,195,51,57,57,2
54,538,645,188,183,51,61,58,2
54,542,587,227,228,57,63,59,2
60,512,573,225,178,53,63,61,2
54,517,572,231,195,64,58,54,2
58,515,550,231,195,65,61,61,2
57,560,523,237,192,63,58,57,2
58,560,537,234,134,56,55,56,2
58,510,504,269,127,54,50,54,2
63,570,568,239,89,38,45,51,2
61,520,614,294,93,45,42,46,2
62,544,620,313,91,45,36,45,2
64,554,600,323,111,47,33,47,2
68,569,660,344,166,48,35,47,2
67,512,629,352,174,50,34,47,2
71,516,684,313,176,46,35,49,2
71,478,666,311,176,46,38,48,2
67,444,730,305,162,44,37,45,2
66,444,731,257,126,45,41,49,2
64,521,704,305,150,50,42,50,2
58,530,602,333,221,58,48,52,2
58,507,639,320,233,63,47,53,2
75,544,638,299,232,63,51,58,2
78,538,621,321,225,61,49,58,2
81,434,657,268,204,59,52,64,2
83,482,750,250,129,47,48,61,2
83,488,717,249,108,42,49,60,2
73,450,691,282,113,43,51,59,2
63,481,706,262,136,53,51,56,2
60,484,654,265,155,52,49,49,2
58,444,552,266,151,54,50,49,2
63,435,575,306,176,53,53,54,2
66,458,581,292,179,56,49,56,2
70,429,546,295,169,47,53,58,2
69,421,627,304,180,55,54,64,2
69,389,625,316,182,54,51,63,2
61,377,609,280,157,52,46,58,2
73,372,632,282,154,52,46,59,2
72,325,673,290,163,54,46,62,2
79,383,624,311,145,44,49,59,2
84,384,629,282,198,62,53,62,2
86,393,679,288,197,62,54,63,2
78,447,663,281,197,64,57,55,2
95,496,604,298,184,65,62,59,2
93,499,611,266,184,65,59,54,2
87,532,612,272,140,50,55,51,2
91,559,607,258,205,58,56,57,2
88,531,576,288,215,57,55,61,2
68,506,615,247,220,55,43,53,2
66,544,624,250,213,53,41,55,2
78,577,676,239,241,53,41,56,2
73,557,626,299,196,46,41,53,2
71,532,658,280,192,50,36,46,2
72,519,651,285,204,51,36,45,2
67,464,613,276,205,50,34,40,2
58,582,614,307,163,49,37,38,2
57,584,603,250,155,48,35,34,2
56,583,610,242,218,67,34,35,2
63,583,591,232,206,67,41,38,2
67,613,599,267,214,72,43,39,2
72,450,499,231,217,73,46,45,2
78,418,497,226,227,73,48,53,2
80,467,391,279,225,64,60,59,2
75,467,430,290,234,67,57,57,2
73,440,414,268,228,62,59,57,2
63,433,462,282,244,97,56,52,2
52,464,516,304,266,105,57,45,2
51,442,555,232,213,99,43,34,2
50,438,520,216,221,97,49,35,2
51,402,566,203,222,98,51,42,2
60,435,574,277,198,64,50,46,2
64,418,562,266,173,53,48,48,2
63,400,571,285,191,47,47,46,2
65,439,574,295,172,45,45,47,2
66,443,549,294,173,71,43,41,2
61,410,581,238,180,72,42,36,2
61,422,642,233,162,71,41,38,2
68,407,640,218,148,75,45,47,2
68,394,647,227,146,79,43,48,2
63,416,720,226,141,56,41,49,2
60,410,788,250,123,51,40,49,2
57,442,710,251,136,50,39,48,2
45,441,764,258,153,46,35,40,2
44,435,776,277,164,43,30,38,2
48,419,707,308,187,87,33,37,2
54,418,596,274,264,89,38,41,2
58,366,639,291,265,96,41,41,2
63,377,574,295,259,101,42,41,2
64,374,537,275,265,99,43,40,2
68,355,624,249,265,73,46,44,2
72,458,657,237,240,77,48,46,2
69,479,655,305,250,91,47,46,2
68,505,699,291,246,90,53,58,2
72,538,721,287,237,94,66,68,2
72,561,646,336,247,91,66,65,2
66,483,636,354,238,86,64,64,2
67,463,624,264,227,68,65,66,2
68,450,595,302,220,60,60,59,2
65,413,622,315,227,84,47,51,2
69,432,667,292,196,87,46,57,2
70,480,655,277,146,87,47,57,2
70,504,671,281,158,83,45,52,2
81,552,679,253,177,85,58,60,2
86,573,734,270,157,61,61,65,2
85,618,774,257,162,53,58,63,2
96,602,855,281,167,57,63,75,2
117,633,855,307,154,66,72,90,2
113,618,865,312,135,68,66,89,2
114,610,817,273,126,65,67,89,2
114,595,777,294,109,64,68,93,2
124,660,734,279,96,58,65,90,2
116,662,717,276,86,49,55,85,2
121,671,715,317,95,50,51,86,2
131,704,705,345,111,48,48,84,2
135,671,684,319,117,51,49,86,2
120,630,675,317,115,51,52,79,2
144,700,766,328,112,57,66,90,2
134,676,729,289,102,55,68,86,2
121,613,756,277,114,57,68,84,2
120,674,752,260,112,55,67,80,2
126,642,694,259,129,60,65,84,2
91,540,581,220,130,58,54,68,2
93,552,552,206,177,57,53,69,2
93,564,479,221,214,57,52,68,2
91,494,589,240,226,59,54,66,2
84,492,576,228,225,56,52,63,2
74,489,598,244,226,52,45,58,2
71,510,746,264,224,52,48,56,2
73,562,812,252,210,48,48,58,2
75,540,745,251,260,54,45,60,2
77,539,747,306,257,53,50,64,2
79,540,787,295,262,54,52,63,2
80,545,684,299,242,52,47,61,2
80,495,616,303,358,73,48,60,2
83,563,603,316,329,74,48,61,2
80,609,639,280,344,77,43,54,2
87,693,602,292,351,79,50,60,2
92,650,611,275,363,81,54,64,2
96,674,624,317,282,70,51,66,2
87,628,627,315,275,62,49,62,2
87,606,626,305,263,57,49,64,2
80,486,652,312,258,54,42,60,2
78,522,653,336,258,60,42,64,2
79,489,650,293,230,55,49,67,2
79,510,675,273,236,59,58,70,2
82,474,660,291,227,60,62,73,2
83,516,600,284,215,63,63,75,2
92,476,564,293,195,58,64,78,2
84,486,575,287,160,54,59,76,2
82,454,533,293,134,49,49,71,2
87,506,535,309,135,50,46,71,2
85,485,604,298,142,52,45,64,2
73,589,605,255,133,46,40,50,2
77,585,591,276,118,47,44,45,2
76,582,602,264,157,54,45,42,2
66,572,584,266,165,55,44,36,2
68,584,552,303,163,48,44,42,2
64,491,536,297,158,48,42,42,2
65,478,517,266,212,47,38,42,2
67,500,485,264,214,40,38,49,2
72,443,505,253,227,41,41,57,2
73,397,473,197,236,40,44,59,2
72,358,476,195,242,45,50,62,2
83,477,515,214,228,49,53,66,2
81,437,546,269,221,48,52,62,2
85,453,580,278,204,45,53,61,2
85,510,602,291,194,43,47,58,2
91,579,648,314,205,41,45,63,2
76,500,687,310,175,39,43,59,2
76,550,700,296,157,38,44,61,2
64,577,684,258,189,40,40,56,2
60,537,663,262,183,42,40,52,2
54,482,641,254,180,39,39,40,2
54,460,541,291,176,37,43,43,2
56,426,532,262,187,40,45,41,2
64,393,504,271,238,44,48,46,2
79,426,481,266,264,51,52,57,2
80,401,452,321,263,54,51,60,2
81,430,628,294,272,54,48,60,2
81,397,591,311,267,55,47,60,2
83,407,611,301,246,62,50,68,2
71,374,650,291,230,57,46,63,2
68,395,672,252,234,55,49,64,2
69,374,591,264,229,58,50,63,2
74,445,632,302,258,62,50,64,2
67,441,634,310,247,55,47,60,2
68,400,626,316,248,58,49,57,2
68,406,637,284,250,60,46,53,2
70,467,574,274,245,61,45,52,2
66,486,554,243,237,58,49,53,2
63,526,597,263,209,55,53,44,2
63,564,606,354,214,63,57,50,2
65,569,603,366,216,81,63,56,2
63,563,618,362,215,80,65,59,2
60,548,627,381,195,78,62,58,2
60,533,576,371,195,78,58,61,2
59,521,646,288,216,71,58,60,2
56,502,631,272,206,53,53,60,2
59,435,605,277,206,50,50,60,2
61,412,637,218,204,49,51,65,2
69,397,605,227,202,50,49,62,2
68,410,601,214,161,50,41,62,2
68,448,563,206,201,43,40,59,2
68,462,613,209,220,55,43,60,2
63,441,545,220,213,57,43,55,2
58,482,659,245,212,56,48,55,2
56,467,581,257,229,61,49,51,2
57,437,635,267,195,61,51,49,2
60,455,621,255,175,53,50,50,2
65,485,668,276,180,53,46,49,2
62,420,602,251,166,51,46,53,2
63,385,570,240,141,46,48,54,2
64,371,540,282,118,46,45,53,2
66,376,580,277,205,51,46,56,2
62,325,570,298,208,49,46,53,2
68,312,574,295,259,81,48,50,2
69,352,687,316,257,82,50,50,2
70,384,748,288,280,84,48,48,2
65,379,762,355,237,79,50,41,2
68,370,769,340,243,79,58,49,2
62,390,768,454,219,51,53,45,2
71,416,697,530,263,50,57,53,2
80,407,703,560,267,55,63,70,2
84,400,703,558,259,57,68,80,2
86,409,701,545,257,56,67,81,2
89,392,703,492,251,53,67,83,2
84,355,703,434,208,49,67,78,2
73,350,647,382,176,45,64,64,2
72,312,590,344,168,46,62,56,2
69,384,580,351,156,48,61,59,2
73,373,567,307,144,53,62,64,2
71,369,604,267,155,51,60,64,2
73,345,604,270,167,49,58,65,2
67,367,614,312,179,49,51,61,2
67,280,584,300,182,50,50,57,2
60,377,564,275,206,48,55,56,2
55,384,536,283,202,47,56,57,2
51,405,517,291,193,46,59,60,2
52,404,466,260,182,46,72,68,2
49,393,465,257,180,51,108,71,2
55,336,502,257,130,48,116,74,2
55,324,513,253,168,72,119,74,2
58,387,519,256,183,77,120,71,2
61,371,519,241,186,77,113,66,2
62,410,554,239,187,74,82,57,2
62,429,555,244,196,72,65,48,2
61,460,520,223,163,50,52,44,2
60,385,561,237,189,48,46,45,2
56,394,565,205,190,47,43,42,2
55,385,509,203,190,47,38,45,2
49,358,487,193,189,49,38,47,2
52,304,472,195,194,53,44,52,2
51,357,444,163,164,45,43,49,2
53,374,509,221,158,46,48,51,2
61,408,579,253,175,47,46,45,2
64,412,574,254,175,46,48,46,2
62,414,581,277,160,42,50,45,2
73,402,599,274,144,42,50,48,2
83,390,612,284,142,39,49,49,2
79,325,597,258,197,46,48,49,2
76,296,595,261,222,56,45,45,2
80,310,582,245,225,54,37,42,2
69,330,540,252,235,56,41,39,2
58,348,516,201,263,60,41,39,2
62,382,525,225,206,55,46,41,2
66,385,519,227,236,81,50,49,2
64,461,581,225,250,86,57,53,2
69,470,648,242,253,90,57,56,2
73,520,636,240,245,90,54,56,2
71,499,704,277,267,102,50,58,2
82,509,739,280,254,107,49,60,2
90,530,746,296,319,118,47,66,2
89,527,705,281,314,121,47,65,2
91,508,749,281,321,121,57,70,2
90,519,661,232,324,116,74,72,2
82,550,693,296,308,98,74,64,2
82,581,716,275,238,83,74,59,2
85,562,737,278,243,76,77,61,2
79,634,690,282,222,74,73,53,2
83,652,733,313,208,91,58,53,2
81,629,676,262,212,87,55,57,2
70,562,602,256,196,86,50,55,2
70,627,563,249,199,86,47,55,2
74,563,587,239,196,85,45,56,2
73,555,540,201,235,59,41,53,2
75,608,541,237,233,54,42,52,2
77,604,546,247,244,58,44,53,2
75,572,604,251,247,55,43,52,2
77,564,607,249,244,56,42,57,2
94,644,638,237,204,57,44,64,2
99,646,714,290,201,60,42,66,2
98,621,729,278,228,55,40,63,2
102,637,710,287,213,56,44,67,2
102,651,719,292,218,53,43,66,2
84,600,717,299,252,52,47,57,2
80,580,610,189,247,71,48,56,2
77,610,610,261,214,83,49,57,2
74,566,609,250,218,87,51,55,2
80,655,617,267,214,92,57,59,2
84,772,628,274,204,95,55,62,2
92,760,693,301,247,83,62,69,2
99,761,726,252,250,72,65,70,2
115,791,759,284,260,67,62,76,2
116,674,758,288,267,64,60,78,2
118,510,761,293,231,59,63,83,2
125,548,759,270,169,58,63,86,2
128,617,759,270,154,57,60,88,2
113,567,712,227,197,58,61,80,2
110,651,705,246,214,66,59,80,2
105,678,640,242,224,68,56,78,2
89,685,619,238,232,70,57,76,2
97,663,609,264,265,73,60,81,2
107,701,633,276,244,76,64,82,2
113,658,594,277,224,67,63,80,2
112,680,632,263,213,64,62,74,2
106,636,629,283,227,59,60,69,2
90,605,626,256,192,53,55,58,2
84,597,618,251,202,57,51,61,2
71,583,697,206,234,58,52,58,2
87,601,749,225,242,60,48,62,2
89,635,742,227,227,55,47,58,2
92,627,712,243,224,56,48,59,2
89,615,679,253,210,49,47,57,2
93,597,605,249,188,51,44,56,2
78,512,522,243,201,55,46,53,2
79,430,515,213,200,54,42,52,2
82,413,566,223,200,54,40,57,2
82,388,589,213,192,54,38,55,2
76,365,676,233,172,50,37,52,2
74,361,663,222,185,59,38,48,2
74,395,656,234,196,63,44,52,2
69,402,658,236,228,69,46,49,2
73,467,655,232,222,73,50,56,2
73,522,576,222,242,73,52,58,2
72,510,567,218,222,64,50,58,2
86,554,688,215,210,63,46,66,2
84,519,656,253,188,60,48,64,2
79,496,678,249,180,57,41,56,2
82,500,720,254,177,60,39,56,2
87,514,769,312,160,58,39,58,2
74,478,707,324,177,59,41,49,2
74,494,747,324,172,60,42,54,2
71,454,749,387,211,66,44,58,2
70,431,748,376,246,71,46,58,2
69,488,739,358,253,68,48,57,2
74,551,754,358,273,69,50,59,2
72,554,694,335,264,64,46,55,2
73,566,709,285,253,56,48,50,2
69,557,665,299,209,45,48,46,2
67,531,671,323,207,51,49,46,2
56,451,629,314,172,48,52,43,2
57,445,638,285,170,47,53,43,2
65,478,602,271,139,48,55,55,2
67,489,656,262,129,48,56,56,2
64,499,669,213,130,42,56,57,2
70,532,682,225,141,40,52,54,2
68,542,664,290,182,41,51,51,2
57,522,666,293,183,41,49,44,2
59,506,589,304,185,42,47,43,2
61,509,545,322,223,47,44,44,2
63,489,542,353,217,47,43,45,2
63,488,571,314,187,48,42,45,2
63,526,541,308,194,47,35,41,2
70,545,581,307,205,47,40,55,2
69,501,597,280,166,44,37,54,2
65,530,598,288,165,50,42,58,2
67,576,614,327,167,53,44,60,2
69,539,667,378,163,50,45,61,2
57,504,632,370,177,49,44,50,2
60,540,599,382,220,54,52,51,2
60,495,565,375,226,47,50,49,2
59,463,535,338,226,43,50,49,2
59,424,450,272,227,44,52,47,2
66,436,557,296,207,42,50,50,2
69,465,587,297,174,47,43,53,2
68,499,585,243,173,48,40,49,2
65,443,594,231,188,49,38,47,2
67,557,627,238,189,50,36,49,2
63,596,598,190,179,50,40,51,2
58,534,627,181,156,43,40,47,2
61,587,614,277,179,46,45,53,2
64,608,682,288,189,57,46,52,2
61,507,729,327,197,59,47,48,2
65,471,667,331,199,57,44,46,2
70,498,652,361,198,56,43,47,2
69,495,684,297,188,56,40,42,2
69,493,583,318,183,55,38,44,2
72,526,527,288,169,53,36,45,2
79,521,552,284,181,56,39,56,2
77,527,526,270,189,54,42,56,2
77,450,475,280,199,56,47,61,2
84,482,518,278,199,46,49,61,2
93,539,489,264,204,46,50,63,2
83,580,471,279,198,48,47,53,2
80,614,532,237,202,49,44,51,2
78,623,559,219,186,46,38,46,2
68,618,545,242,200,49,37,43,2
62,540,593,245,222,51,45,45,2
69,492,590,239,233,49,53,49,2
68,433,523,231,229,48,55,55,2
73,516,566,251,220,53,57,56,2
75,487,603,220,190,56,59,60,2
75,554,601,227,203,57,55,57,2
67,572,658,272,218,60,46,51,2
70,599,732,292,228,59,45,46,2
67,517,692,286,237,52,44,40,2
65,550,685,330,244,47,42,35,2
62,492,650,332,241,48,41,32,2
64,466,621,307,232,47,44,32,2
67,420,519,292,223,48,46,30,2
73,385,613,352,215,50,63,49,2
72,325,619,291,202,49,66,55,2
70,392,643,325,176,47,70,58,2
69,410,630,326,200,47,86,64,2
64,402,667,327,207,48,86,65,2
54,406,626,263,201,47,73,53,2
55,422,587,267,211,48,71,47,2
56,377,634,248,233,52,70,44,2
59,414,682,228,205,49,51,41,2
57,442,648,230,194,51,49,40,2
56,473,656,245,241,63,50,42,2
55,495,663,275,241,62,51,44,2
57,483,597,263,252,63,49,48,2
60,470,560,279,243,63,49,47,2
102,518,576,276,250,60,48,56,2
111,516,555,273,207,46,46,59,2
115,516,557,234,202,45,41,58,2
120,580,571,217,140,35,38,64,2
120,569,676,216,132,36,35,63,2
91,516,662,269,121,39,35,55,2
88,544,639,263,167,39,43,55,2
101,641,690,265,175,41,46,60,2
105,625,687,285,241,48,48,53,2
101,698,542,288,256,49,49,52,2
101,713,678,273,251,51,53,54,2
94,682,660,271,227,54,47,50,2
73,556,602,277,226,53,47,43,2
59,543,655,300,154,47,45,42,2
72,473,736,306,136,54,47,47,2
68,527,624,276,165,55,39,46,2
68,599,642,274,174,82,39,46,2
69,625,700,271,172,86,39,47,2
82,615,674,283,173,89,39,51,2
78,588,573,271,169,86,40,51,2
85,507,553,272,155,84,44,53,2
84,425,533,264,142,53,45,52,2
95,397,539,279,233,54,47,62,2
81,371,511,276,263,54,46,58,2
78,381,584,279,270,50,42,56,2
72,360,582,292,271,49,40,56,2
75,378,616,286,266,49,39,57,2
63,380,523,264,183,44,39,47,2
81,386,531,200,138,40,38,56,2
82,352,474,178,121,44,36,57,2
82,351,516,143,109,46,39,55,2
95,308,494,143,138,48,39,60,2
106,305,532,145,151,46,40,61,2
95,275,484,126,156,42,48,53,2
91,262,541,136,154,37,57,49,2
88,266,560,158,158,33,55,48,2
74,268,629,194,153,40,60,43,2
58,294,625,218,158,48,62,41,2
63,357,621,219,171,48,55,40,2
69,375,608,228,182,52,51,45,2
77,421,598,243,216,56,56,51,2
78,469,501,239,207,54,52,52,2
79,443,462,266,255,76,49,54,2
76,418,554,275,252,79,48,54,2
69,407,521,268,276,81,45,49,2
60,359,475,277,253,81,45,41,2
53,330,522,271,252,82,46,41,2
50,350,537,277,201,56,47,39,2
46,313,547,273,238,54,48,37,2
48,354,549,270,206,49,51,42,2
49,373,592,241,203,44,43,42,2
56,333,548,249,210,44,46,42,2
63,371,639,287,216,50,45,44,2
65,407,589,283,192,51,52,46,2
67,389,588,286,195,52,55,46,2
68,408,679,296,209,56,56,47,2
64,433,688,320,197,54,57,45,2
58,455,675,284,182,49,56,44,2
71,467,662,327,155,53,53,42,2
72,496,662,320,144,50,46,38,2
76,561,580,320,115,47,48,43,2
78,580,614,312,114,46,43,45,2
80,532,572,274,107,44,41,42,2
72,526,678,251,139,48,40,44,2
72,487,665,255,174,50,41,49,2
69,410,699,286,174,52,39,46,2
67,409,669,275,172,53,42,52,2
67,441,655,283,175,52,41,53,2
66,403,521,265,147,46,38,51,2
62,425,530,280,114,47,39,49,2
60,396,518,328,113,44,37,48,2
57,368,539,318,111,43,35,46,2
67,365,551,333,111,45,48,57,2
66,382,622,333,111,39,47,58,2
70,375,660,325,146,43,52,63,2
87,391,590,228,163,48,56,67,2
86,365,610,209,178,47,54,62,2
80,365,626,165,185,75,47,55,2
84,431,601,174,191,78,48,53,2
81,415,622,162,160,76,40,45,2
63,396,610,226,146,72,35,36,2
66,410,596,224,134,72,35,40,2
60,429,543,250,129,44,30,34,2
52,371,520,249,169,43,30,38,2
48,360,423,249,172,42,30,37,2
54,411,499,204,186,43,32,45,2
53,403,503,210,190,48,34,44,2
50,331,496,218,187,43,32,44,2
50,336,493,207,147,40,32,44,2
53,336,620,219,180,51,31,44,2
44,325,666,216,161,51,30,35,2
42,318,640,218,152,48,29,34,2
60,406,647,180,152,49,31,39,2
60,378,625,184,141,49,33,37,2
61,398,592,214,148,51,33,39,2
63,352,462,211,153,54,32,42,2
66,365,472,224,163,56,35,46,2
56,299,462,220,170,56,35,46,2
56,285,493,211,170,56,35,45,2
60,280,424,216,125,45,34,49,2
60,303,477,206,113,43,34,48,2
56,271,515,209,94,38,32,44,2
53,275,600,218,96,37,31,41,2
67,315,645,220,156,43,31,43,2
65,321,610,172,175,43,34,41,2
64,302,607,242,185,45,39,42,2
66,344,594,235,217,47,39,45,2
76,360,550,237,220,50,40,46,2
66,331,484,235,187,43,39,46,2
61,364,570,249,183,44,37,42,2
62,400,556,236,182,47,37,42,2
61,429,564,231,175,46,37,39,2
48,401,563,249,164,44,38,38,2
48,411,621,266,165,46,39,37,2
51,403,587,256,165,43,37,38,2
54,390,565,249,175,42,35,37,2
56,333,619,282,196,43,35,38,2
57,422,598,263,199,42,35,38,2
62,456,555,246,196,40,38,45,2
64,462,582,246,187,41,40,46,2
65,526,701,238,169,34,40,47,2
65,528,649,200,112,33,40,47,2
74,484,692,207,109,35,42,52,2
70,449,699,217,112,36,39,46,2
76,425,802,227,133,41,41,53,2
83,354,741,248,169,44,42,55,2
84,383,733,240,189,45,41,54,2
80,377,729,243,192,47,44,52,2
91,502,790,270,203,51,49,61,2
97,543,695,275,182,47,49,60,2
93,552,717,266,148,45,50,57,2
99,583,775,276,115,45,51,63,2
102,603,783,284,117,45,51,64,2
110,558,793,259,100,46,55,68,2
102,562,757,293,99,45,53,68,2
98,612,790,272,104,46,50,66,2
99,642,723,265,109,49,53,64,2
96,662,689,249,108,48,49,63,2
78,717,623,254,261,73,48,62,2
82,696,616,246,276,80,51,67,2
85,698,570,235,281,80,52,69,2
82,681,643,239,283,80,50,68,2
81,659,633,234,282,80,51,67,2
85,578,623,249,151,56,43,58,2
83,641,655,217,160,50,39,49,2
88,627,606,270,152,55,44,53,2
82,574,553,275,146,53,43,50,2
80,560,596,294,142,53,44,54,2
72,582,698,270,168,54,42,50,2
69,528,648,257,143,52,45,53,2
62,467,703,205,137,48,41,48,2
69,544,720,273,165,50,41,50,2
70,558,714,247,163,48,43,47,2
76,552,585,250,134,44,42,55,2
76,539,647,247,135,42,38,52,2
72,536,631,241,136,39,37,50,2
70,536,587,163,105,40,36,50,2
70,499,593,231,106,42,32,50,2
61,444,644,233,103,42,32,42,2
59,499,657,232,125,44,31,43,2
62,488,687,240,126,45,30,43,2
60,459,714,230,165,45,29,42,2
55,492,752,203,167,43,27,40,2
57,522,734,246,179,48,28,39,2
61,480,711,252,161,46,28,37,2
64,497,672,248,161,46,32,38,2
61,492,699,250,123,41,34,37,2
60,502,695,232,121,46,37,38,2
63,510,672,213,100,38,35,39,2
75,544,670,236,133,50,37,48,2
84,601,755,236,153,58,35,49,2
85,604,713,231,153,57,35,53,2
86,610,678,226,149,53,31,52,2
83,595,689,198,156,54,32,53,2
72,540,690,161,126,43,29,45,2
60,472,585,252,106,37,28,43,2
93,572,681,281,114,44,36,56,2
100,521,649,279,117,45,40,59,2
102,555,682,273,143,47,40,58,2
104,545,667,269,152,49,42,60,2
112,605,672,204,165,49,43,63,2
90,504,616,188,165,45,37,54,2
82,512,620,187,165,46,35,49,2
81,487,600,184,143,43,37,49,2
78,496,615,197,138,40,37,47,2
60,443,590,179,112,37,38,46,2
58,414,542,174,105,39,38,42,2
63,450,557,173,136,40,38,42,2
62,411,530,217,133,42,37,41,2
68,469,467,214,150,43,39,49,2
73,474,474,211,160,44,41,51,2
76,508,502,195,161,47,44,58,2
77,482,557,221,194,55,47,62,2
83,505,578,223,203,54,47,65,2
79,479,630,230,187,53,44,57,2
77,517,653,240,186,52,40,53,2
72,524,610,245,186,47,37,48,2
87,577,560,224,124,39,33,51,2
82,585,564,280,100,39,36,51,2
102,633,555,276,106,38,37,57,2
103,625,607,274,115,42,39,58,2
103,596,632,273,148,43,40,57,2
85,539,595,272,151,41,37,51,2
82,537,649,181,156,39,34,48,2
56,499,726,246,155,40,34,44,2
62,466,704,250,146,35,31,42,2
63,431,714,257,109,39,29,38,2
65,496,752,257,128,43,28,37,2
65,491,725,249,150,43,27,36,2
65,487,634,184,147,45,32,36,2
61,513,637,171,140,48,35,40,2
60,517,617,158,136,41,33,39,2
66,476,624,216,132,39,34,41,2
66,503,621,226,101,39,35,42,2
66,467,601,227,106,40,32,43,2
61,430,608,231,110,37,31,41,2
61,475,607,230,111,37,33,42,2
52,445,580,177,94,35,33,40,2
62,459,572,178,121,37,35,51,2
62,448,618,231,165,41,36,51,2
65,434,615,227,170,41,34,49,2
63,372,596,221,183,53,36,51,2
68,437,620,222,182,53,38,54,2
60,422,601,231,170,53,36,48,2
68,481,590,172,127,46,39,52,2
66,484,537,169,126,50,42,56,2
66,492,605,182,111,42,42,57,2
70,465,699,248,129,50,43,57,2
80,410,707,237,120,52,45,57,2
76,335,767,257,127,54,41,55,2
78,343,751,272,124,54,40,55,2
82,469,732,265,121,51,38,53,2
75,468,617,257,127,51,37,53,2
66,488,607,256,146,52,34,47,2
62,529,543,242,148,49,35,43,2
58,536,585,231,148,48,34,35,2
56,474,584,227,148,49,37,40,2
59,459,607,181,127,40,35,38,2
59,500,607,197,116,38,35,39,2
69,472,666,267,109,42,39,43,2
78,477,645,267,109,41,43,50,2
78,452,656,279,128,42,41,47,2
82,442,693,265,126,46,43,52,2
78,474,771,249,112,45,44,54,2
72,478,729,163,110,42,40,52,2
62,467,753,172,127,43,36,46,2
62,457,722,210,123,45,35,45,2
56,492,653,213,123,41,36,40,2
62,471,565,217,148,41,37,42,2
62,447,508,242,146,41,38,43,2
71,481,498,238,129,39,41,46,2
72,493,509,215,114,36,41,47,2
78,488,514,260,119,45,48,53,2
75,443,521,263,118,50,46,48,2
77,481,532,256,119,49,45,48,2
72,485,536,251,151,56,46,49,2
71,486,518,244,159,58,48,50,2
68,497,591,254,157,54,37,46,2
66,509,554,255,139,49,37,46,2
62,477,568,242,134,63,102,47,2
60,431,586,236,109,59,110,45,2
59,436,639,244,104,57,112,44,2
59,429,572,202,103,55,113,43,2
64,370,632,234,100,54,113,47,2
62,441,727,251,110,40,64,49,2
60,444,709,254,110,40,46,48,2
60,474,749,244,104,40,41,48,2
53,469,831,242,99,40,37,47,2
47,515,857,280,101,39,40,44,2
57,531,765,277,95,36,36,40,2
59,565,792,291,82,36,39,40,2
65,534,739,295,96,39,40,42,2
74,549,721,280,93,37,38,43,2
93,535,645,213,90,38,39,54,2
89,502,702,223,89,39,38,55,2
96,492,649,205,86,35,37,57,2
91,524,647,200,96,35,34,57,2
86,498,690,206,103,35,37,59,2
66,471,683,195,128,40,36,50,2
69,433,646,173,141,41,37,52,2
62,442,672,224,140,39,38,50,2
71,396,647,231,136,40,42,52,2
71,402,539,228,133,42,42,49,2
72,435,602,247,106,38,42,48,2
73,443,636,245,93,41,43,51,2
70,415,663,250,112,56,45,53,2
71,401,701,253,118,76,48,59,2
73,406,686,258,117,86,49,61,2
75,410,624,255,128,87,47,58,2
82,479,595,269,127,88,49,55,2
81,526,560,241,111,82,49,54,2
73,577,606,257,91,65,46,45,2
75,642,619,272,100,54,45,44,2
70,638,679,272,110,61,49,46,2
67,597,749,252,116,64,52,52,2
66,572,749,240,118,63,51,50,2
82,597,717,260,121,65,51,53,2
81,504,758,248,113,63,50,52,2
88,514,710,234,115,55,47,56,2
82,502,680,263,105,49,42,48,2
83,475,702,253,102,47,41,49,2
65,395,698,255,129,44,39,42,2
66,418,710,258,135,45,38,44,2
63,373,725,260,119,43,39,37,2
64,415,678,240,134,40,37,38,2
65,405,689,253,140,53,39,40,2
69,493,668,197,111,50,33,43,2
68,482,595,186,104,51,33,45,2
75,493,670,220,103,53,36,53,2
78,497,642,214,106,55,39,55,2
77,526,583,211,114,42,39,56,2
78,446,545,271,135,45,40,54,2
78,465,522,278,137,44,40,53,2
78,461,454,264,147,43,39,53,2
75,434,576,267,131,43,35,52,2
80,435,589,284,119,43,38,55,2
74,408,648,254,122,38,39,53,2
71,405,688,255,121,36,38,50,2
58,413,670,319,112,32,36,44,2
56,403,576,323,113,31,40,44,2
50,356,538,311,171,48,38,41,2
54,365,494,283,170,57,40,46,2
57,367,494,329,177,59,41,50,2
60,367,488,266,175,59,41,46,2
61,389,496,263,177,59,37,47,2
67,428,624,262,121,49,36,45,2
65,438,650,266,142,45,33,42,2
62,485,606,231,137,43,34,44,2
60,516,631,221,150,45,33,47,2
60,490,629,230,148,45,34,45,2
59,470,534,222,192,46,32,43,2
73,460,519,266,170,40,30,40,2
77,389,609,248,168,45,29,38,2
76,336,587,241,153,43,28,35,2
79,341,617,244,157,43,31,41,2
76,329,644,259,120,41,33,43,2
72,408,687,222,123,44,42,51,2
66,431,663,236,126,41,44,51,2
66,441,660,253,128,42,45,53,2
61,451,666,239,119,42,47,51,2
60,454,624,223,127,41,45,49,2
49,394,574,213,138,43,41,49,2
60,381,595,173,138,44,40,49,2
65,374,605,153,146,43,40,49,2
72,351,553,154,161,41,37,50,2
77,375,586,216,154,44,39,54,2
79,388,583,213,157,39,36,50,2
72,380,517,211,161,38,34,47,2
68,389,491,209,161,36,33,47,2
62,416,537,206,183,50,34,47,2
59,404,529,141,192,51,31,43,2
64,413,540,146,184,52,32,42,2
66,395,545,159,177,51,32,41,2
66,402,548,216,179,55,35,40,2
65,358,492,210,158,46,35,40,2
65,367,519,205,126,42,37,44,2
58,343,498,211,110,42,41,46,2
60,364,489,208,112,40,43,52,2
58,394,498,193,113,39,40,53,2
58,408,550,234,126,38,41,52,2
56,392,546,241,133,39,41,50,2
58,442,626,259,153,41,40,52,2
60,491,703,262,154,41,36,49,2
61,464,685,231,151,39,38,49,2
68,476,674,259,145,47,43,62,2
74,512,690,263,151,48,44,65,2
73,497,622,248,132,46,42,63,2
69,439,510,247,132,47,42,61,2
68,425,509,253,137,46,41,59,2
60,457,611,247,149,40,34,45,2
48,408,554,236,148,38,30,37,2
57,403,547,235,149,39,31,37,2
58,429,551,235,185,45,34,40,2
65,439,597,237,201,50,35,44,2
64,372,451,182,179,50,35,42,2
82,429,468,232,186,53,39,51,2
75,396,504,227,183,53,39,52,2
74,369,543,224,144,48,37,51,2
73,370,512,228,110,47,37,52,2
71,390,559,219,105,42,37,54,2
61,342,579,193,136,42,35,47,2
67,340,568,184,147,48,37,49,2
71,351,561,192,157,50,38,50,2
69,460,617,224,152,47,37,46,2
72,456,600,230,156,50,38,45,2
70,450,549,215,119,48,38,52,2
70,460,534,222,106,47,34,47,2
70,471,529,216,139,51,36,47,2
69,366,533,175,147,52,38,50,2
68,364,549,163,146,50,36,50,2
63,431,582,165,139,50,34,43,2
63,423,588,153,142,44,34,46,2
60,392,602,166,121,38,32,44,2
64,387,532,160,124,36,35,44,2
69,407,573,166,141,40,36,46,2
73,340,550,164,165,46,37,47,2
68,422,536,193,168,49,37,48,2
68,433,527,210,160,47,35,46,2
62,450,548,207,154,45,36,45,2
54,492,546,231,154,44,36,42,2
49,502,647,244,134,39,35,41,2
52,436,689,234,138,40,39,43,2
52,491,690,214,129,41,42,47,2
65,492,696,214,142,46,41,47,2
68,471,661,191,121,44,41,50,2
70,464,559,179,130,45,43,57,2
69,469,538,166,115,43,42,56,2
71,495,628,180,118,41,41,54,2
65,592,622,178,93,35,39,52,2
65,600,620,187,106,37,39,49,2
67,596,619,167,94,35,36,44,2
64,609,667,165,101,33,31,39,2
73,568,578,157,116,42,34,51,2
69,491,611,163,125,50,37,53,2
76,502,590,142,123,52,37,55,2
75,508,609,151,131,49,37,52,2
75,520,525,156,138,52,43,52,2
63,491,551,140,130,47,40,41,2
66,447,499,124,168,48,39,40,2
55,362,487,124,177,47,37,38,2
76,379,522,135,168,54,47,59,2
77,348,592,130,163,56,47,63,2
84,382,557,137,170,62,50,65,2
85,387,585,145,128,55,51,66,2
93,418,616,153,147,60,52,67,2
76,385,602,137,161,57,45,49,2
80,377,624,142,168,58,47,51,2
86,349,658,166,161,50,43,50,2
88,319,626,165,162,51,42,50,2
85,305,619,155,132,42,40,50,2
85,307,618,156,111,38,39,50,2
88,316,513,177,95,34,32,46,2
82,342,491,198,119,41,36,52,2
78,423,570,210,162,53,40,53,2
72,466,611,217,172,56,42,50,2
75,468,619,222,180,60,41,53,2
71,495,639,212,180,60,42,53,2
67,472,677,160,161,58,40,48,2
66,459,656,149,170,45,35,44,2
80,467,620,142,157,44,36,53,2
82,471,586,157,151,38,39,53,2
79,444,624,152,155,35,38,51,2
78,434,619,160,162,30,37,50,2
90,423,616,156,129,47,52,74,2
81,411,654,168,136,50,53,74,2
81,470,703,172,144,51,52,74,2
76,456,667,174,172,56,52,73,2
78,513,618,170,186,63,53,73,2
64,504,646,178,180,59,41,50,2
81,533,603,165,178,55,39,45,2
77,493,590,181,171,54,40,45,2
79,510,682,178,143,52,39,46,2
81,474,683,177,128,47,39,48,2
76,454,637,171,113,39,38,43,2
60,389,613,191,112,39,37,42,2
70,413,646,172,134,38,38,40,2
71,393,555,173,136,36,36,40,2
73,383,568,176,132,38,36,40,2
83,415,559,179,137,42,39,42,2
81,431,616,188,134,41,39,41,2
73,444,537,175,134,43,39,41,2
72,435,510,170,129,44,41,40,2
66,451,501,165,144,48,41,40,2
54,434,571,164,143,49,36,42,2
59,422,524,139,147,52,39,45,2
59,375,577,139,129,50,37,45,2
64,379,683,141,134,51,39,52,2
64,390,727,180,152,47,39,52,2
74,435,698,182,149,47,41,55,2
70,423,779,191,148,43,37,51,2
69,434,751,189,146,45,37,52,2
63,436,717,195,140,42,33,47,2
65,447,711,162,90,35,33,43,2
53,450,673,151,93,30,32,41,2
57,444,678,186,96,31,34,43,2
57,491,681,197,108,31,34,43,2
61,533,651,188,138,35,36,42,2
55,540,599,197,138,38,37,45,2
59,554,650,229,173,42,37,40,2
57,605,626,209,171,46,37,44,2
56,601,636,211,161,43,37,46,2
56,594,672,217,141,43,37,48,2
68,633,668,218,140,42,38,51,2
72,609,631,201,87,39,37,55,2
73,573,584,191,115,45,39,54,2
74,533,574,176,131,49,41,54,2
72,563,539,176,135,50,40,54,2
64,477,595,161,135,49,37,49,2
56,452,592,166,132,48,35,45,2
65,431,571,166,114,39,32,45,2
66,441,627,169,90,39,32,43,2
65,381,647,170,117,35,31,40,2
66,443,613,177,122,34,32,44,2
66,417,693,193,128,34,32,43,2
57,460,714,178,121,38,35,40,2
58,469,649,171,122,35,34,42,2
61,449,590,160,82,39,35,42,2
56,382,599,151,70,38,33,39,2
58,417,529,103,63,47,33,42,2
57,368,510,125,115,54,28,40,2
54,324,506,128,167,56,27,44,2
49,335,609,134,176,58,30,45,2
54,380,659,130,182,62,34,45,2
54,450,680,129,183,57,36,47,2
53,444,677,104,154,49,38,48,2
54,459,716,116,160,51,38,45,2
59,475,716,116,155,51,38,48,2
60,460,638,127,157,50,37,49,2
62,381,618,146,156,52,37,50,2
67,401,625,168,194,56,38,55,2
66,377,628,171,154,51,40,52,2
65,421,555,178,182,51,44,57,2
64,387,579,183,178,51,44,58,2
59,409,566,165,182,51,44,57,2
56,417,571,140,168,48,44,53,2
57,417,547,142,162,49,42,56,2
71,487,539,152,126,49,36,52,2
72,496,546,153,125,47,35,49,2
78,490,531,157,148,44,33,51,2
79,491,542,175,124,38,32,50,2
80,602,619,181,146,48,31,50,2
67,508,627,183,152,49,30,43,2
66,524,637,179,154,47,31,45,2
56,508,616,181,152,46,30,39,2
55,496,564,169,149,49,34,43,2
60,485,533,159,132,41,38,50,2
63,487,540,140,128,39,42,55,2
66,497,519,139,141,44,42,58,2
69,480,532,143,130,46,44,57,2
78,468,574,158,132,45,41,58,2
80,364,494,164,157,48,37,55,2
80,571,456,184,156,48,38,60,2
75,564,425,181,143,45,37,59,2
75,578,420,188,140,49,34,59,2
66,624,473,181,163,49,34,55,2
61,617,472,177,133,45,32,51,2
59,423,531,190,153,48,30,44,2
65,403,583,199,161,49,30,44,2
64,457,592,197,156,44,32,45,2
64,444,549,195,132,43,36,46,2
60,487,623,198,131,44,38,44,2
67,541,707,177,108,39,39,46,2
62,552,672,186,103,37,41,49,2
65,493,692,199,124,49,44,51,2
72,469,684,208,153,51,40,50,2
74,428,670,198,156,52,39,50,2
67,370,522,201,155,52,35,45,2
70,421,532,183,151,52,33,43,2
69,432,550,163,136,40,28,42,2
63,458,563,166,98,36,29,44,2
62,438,516,170,95,34,32,43,2
63,418,519,148,90,33,32,44,2
62,408,539,160,91,38,32,40,2
60,445,546,175,92,42,36,39,2
63,449,588,169,96,44,37,43,2
63,458,570,164,103,49,37,43,2
57,459,584,189,111,49,36,43,2
54,469,620,178,113,44,36,45,2
54,435,623,182,113,44,34,45,2
61,425,547,166,113,43,33,46,2
62,434,633,177,126,40,31,44,2
61,428,630,173,122,40,30,43,2
71,400,568,181,115,43,32,44,2
74,416,550,200,119,47,32,44,2
66,397,667,205,116,47,32,38,2
67,373,606,199,91,47,34,41,2
70,403,628,188,95,46,37,46,2
61,442,628,210,130,45,34,45,2
61,424,644,169,120,41,35,44,2
56,417,547,167,127,42,36,42,2
60,474,575,169,133,45,36,47,2
65,488,546,173,137,49,35,46,2
67,440,650,140,154,52,35,45,2
64,487,636,144,157,48,37,46,2
66,483,702,153,153,50,39,49,2
62,501,709,159,155,45,39,44,2
57,461,756,156,149,42,41,45,2
59,508,662,192,109,38,41,48,2
62,476,650,206,103,49,39,50,2
62,461,556,208,110,47,36,47,2
59,392,527,199,137,49,36,45,2
57,410,502,208,136,47,34,47,2
65,370,598,183,146,51,38,54,2
59,351,581,167,148,40,39,51,2
59,363,595,170,141,39,37,51,2
64,385,596,183,136,43,37,52,2
70,423,590,189,146,49,37,47,2
59,402,477,180,129,46,32,32,2
61,400,460,190,134,47,31,35,2
64,400,465,186,134,48,34,35,2
69,421,444,172,108,45,37,36,2
61,370,454,141,97,40,38,39,2
63,364,477,155,101,42,39,40,2
66,371,513,137,114,39,38,40,2
70,422,557,130,115,38,39,44,2
63,383,607,144,116,34,34,44,2
71,384,577,170,112,32,35,44,2
72,395,602,158,131,29,33,43,2
72,402,582,158,112,29,33,41,2
69,351,566,156,129,35,32,39,2
68,340,517,142,130,38,34,41,2
61,341,548,148,148,41,32,37,2
60,300,610,144,134,40,38,39,2
58,287,629,147,144,42,43,40,2
54,285,665,171,125,40,42,37,2
60,275,702,197,122,39,40,38,2
63,326,679,191,118,40,47,42,2
65,332,601,205,117,44,44,41,2
65,363,592,202,113,45,40,41,2
68,392,510,185,112,44,41,42,2
64,414,489,186,113,44,43,40,2
62,373,472,170,94,40,36,38,2
60,375,491,163,126,38,37,38,2
64,339,535,166,142,42,35,46,2
58,325,528,166,148,43,34,47,2
59,313,512,155,145,42,34,44,2
58,292,617,169,156,41,35,49,2
58,312,676,169,126,39,34,50,2
59,350,664,185,151,44,37,45,2
63,331,681,183,149,44,38,45,2
63,425,708,189,162,46,35,47,2
66,427,647,178,156,48,34,43,2
64,450,559,177,183,49,34,42,2
61,451,514,165,145,38,30,39,2
59,438,545,171,146,38,31,42,2
60,358,478,151,136,34,30,45,2
63,376,483,156,141,36,31,48,2
66,355,537,177,111,34,31,49,2
62,326,539,168,133,39,33,48,2
64,332,516,160,135,38,34,49,2
62,349,527,159,141,38,35,43,2
57,405,509,159,131,38,38,43,2
57,382,539,137,132,40,39,44,2
59,397,536,146,105,36,39,45,2
54,430,581,147,93,35,36,40,2
54,427,566,146,78,35,37,44,2
53,367,545,173,84,33,36,42,2
50,368,540,182,84,34,36,41,2
48,361,561,181,129,37,36,40,2
61,356,496,177,134,40,38,43,2
61,318,568,195,143,44,38,44,2
57,312,641,179,147,44,37,41,2
60,318,588,189,144,41,37,42,2
60,314,623,192,108,37,37,46,2
52,329,674,195,108,36,37,43,2
53,348,625,182,100,32,36,39,2
60,357,553,188,86,35,39,39,2
57,399,586,186,86,38,38,36,2
58,407,639,191,91,56,102,31,2
60,448,615,194,94,61,112,34,2
58,437,618,195,120,65,115,38,2
61,428,635,177,119,63,116,38,2
64,385,617,147,123,66,132,38,2
68,393,521,137,116,56,123,42,2
63,330,499,144,112,56,122,38,2
64,346,475,191,85,56,122,37,2
61,415,472,189,84,58,123,39,2
56,431,551,195,74,54,108,41,2
58,432,554,230,96,52,74,46,2
62,414,562,244,90,47,60,48,2
60,416,602,208,98,44,58,53,2
54,340,665,209,103,41,55,54,2
59,324,651,221,105,41,50,54,2
56,329,724,186,91,38,46,47,2
72,333,810,182,109,39,51,60,2
73,321,795,179,104,38,47,56,2
77,338,777,184,104,38,45,52,2
76,317,747,184,118,39,42,55,2
75,273,683,206,114,40,50,56,2
61,274,570,192,97,40,48,44,2
59,280,615,192,91,43,54,42,2
56,306,565,194,90,44,57,42,2
54,306,584,208,82,44,59,39,2
57,371,614,193,84,40,55,40,2
55,377,751,212,94,39,53,44,2
56,369,711,210,92,33,45,48,2
53,350,738,229,87,32,44,48,2
58,422,741,208,70,31,41,46,2
60,379,783,214,85,30,42,48,2
65,402,631,191,86,30,39,44,2
65,424,634,218,102,41,40,44,2
67,428,613,194,118,44,38,45,2
62,393,620,212,141,46,43,48,2
70,396,542,197,140,51,44,51,2
66,367,605,200,136,49,46,49,2
66,334,602,181,125,41,43,47,2
65,328,718,180,117,37,43,45,2
67,320,688,180,104,39,38,44,2
56,306,715,222,95,37,31,38,2
59,339,690,219,130,46,32,43,2
66,379,703,220,134,50,38,50,2
71,426,629,237,135,52,40,53,2
73,449,617,248,129,52,41,57,2
74,484,586,230,128,52,43,57,2
70,460,560,229,93,44,41,55,2
61,457,565,219,83,40,43,52,2
55,436,509,209,71,37,44,51,2
51,413,553,174,73,32,43,46,2
51,452,548,152,80,32,43,46,2
55,490,631,169,86,32,43,47,2
56,482,625,164,89,32,34,42,2
56,450,661,162,103,38,30,39,2
62,448,634,165,108,41,34,41,2
65,371,639,174,128,40,38,45,2
64,361,581,161,140,41,38,45,2
68,378,556,175,141,45,44,49,2
68,441,502,180,136,41,46,50,2
68,452,533,187,127,38,46,49,2
65,454,605,172,107,38,43,45,2
67,422,577,188,89,40,45,47,2
65,393,632,175,88,36,40,42,2
73,335,656,171,89,37,41,45,2
70,341,642,170,89,39,39,45,2
70,320,556,196,98,48,40,47,2
72,340,573,184,104,46,37,44,2
69,345,563,188,113,49,39,48,2
58,351,561,189,110,47,39,47,2
60,356,560,211,110,46,43,47,2
57,378,589,211,98,36,43,46,2
57,364,606,212,93,37,43,47,2
56,395,617,210,87,32,41,45,2
64,422,606,203,86,33,42,46,2
63,422,650,180,90,36,38,45,2
66,441,611,159,90,36,35,43,2
62,440,586,163,94,36,36,42,2
65,459,547,165,105,49,37,48,2
57,429,555,177,141,51,35,44,2
54,405,514,177,144,49,35,44,2
51,362,496,182,141,49,35,44,2
53,360,564,183,135,47,38,46,2
51,285,598,180,127,36,37,37,2
51,285,578,184,119,39,37,37,2
50,323,558,174,128,43,35,38,2
51,330,586,170,153,48,35,43,2
71,307,501,160,153,50,35,49,2
71,302,444,161,151,50,38,50,2
74,307,493,181,127,45,42,50,2
76,262,515,179,117,40,41,51,2
75,296,491,176,87,34,41,48,2
56,319,498,196,103,33,38,43,2
52,354,478,203,100,33,35,41,2
52,369,448,176,99,33,30,41,2
60,382,408,171,92,34,33,44,2
60,355,414,161,91,32,35,45,2
68,426,461,142,101,39,36,42,2
72,400,488,124,99,38,35,43,2
84,407,477,136,135,44,37,48,2
78,384,559,140,141,46,36,46,2
79,395,566,152,167,47,35,43,2
72,396,600,163,159,42,33,44,2
70,415,614,186,161,40,32,44,2
58,413,658,178,134,36,32,39,2
59,426,589,194,137,39,33,39,2
68,466,640,198,129,46,32,41,2
79,456,617,188,133,50,34,49,2
85,456,626,168,145,56,34,52,2
86,491,574,178,144,57,35,52,2
84,507,588,189,155,55,36,53,2
80,471,553,178,141,52,39,56,2
67,434,578,189,138,47,38,47,2
59,442,551,212,125,44,43,46,2
60,387,589,214,124,44,42,46,2
59,365,595,206,100,40,39,44,2
60,378,632,209,103,39,39,39,2
63,364,633,222,171,52,38,46,2
63,374,625,221,175,50,34,44,2
63,372,603,218,179,55,41,42,2
68,390,669,215,181,61,49,46,2
66,444,643,215,174,63,51,48,2
63,451,591,188,108,53,52,43,2
62,434,617,175,102,52,52,44,2
55,435,739,161,101,45,46,43,2
53,424,635,159,96,40,36,37,2
50,361,624,159,96,34,33,34,2
61,385,645,169,94,32,33,34,2
59,374,682,169,110,37,30,34,2
58,392,520,169,141,39,31,35,2
58,393,521,167,144,43,38,42,2
59,400,532,163,145,43,39,45,2
53,355,508,158,146,45,38,46,2
57,373,414,149,149,42,39,48,2
57,367,460,155,122,41,39,48,2
53,359,553,166,124,36,34,44,2
50,332,528,201,120,34,33,41,2
52,344,508,205,110,33,32,39,2
47,302,506,223,108,34,32,35,2
58,277,522,224,173,39,32,36,2
59,278,549,212,171,39,35,39,2
62,284,546,180,173,42,33,41,2
65,292,548,165,175,43,33,40,2
70,336,561,129,163,46,38,51,2
67,345,558,115,87,43,43,57,2
67,389,470,99,88,43,40,56,2
66,400,462,107,90,45,41,55,2
64,440,473,122,88,45,43,58,2
62,443,545,142,86,44,40,53,2
66,486,534,143,91,40,36,52,2
66,443,544,140,89,41,35,52,2
70,440,592,139,96,48,36,56,2
68,379,584,134,111,49,36,56,2
66,367,536,139,115,46,38,58,2
62,362,517,139,112,49,38,53,2
63,360,491,163,107,48,37,50,2
56,368,484,157,105,38,36,45,2
59,427,533,171,85,38,36,49,2
62,419,519,153,82,37,32,46,2
60,352,507,152,75,35,33,47,2
58,387,563,134,111,37,36,48,2
64,463,577,162,109,40,38,54,2
58,429,567,155,138,42,35,48,2
53,441,640,151,148,40,33,44,2
49,435,628,149,158,40,32,41,2
49,450,621,153,139,41,30,43,2
45,380,648,126,141,39,33,37,2
48,377,697,118,171,41,35,37,2
47,352,634,129,169,42,37,38,2
60,377,694,158,162,42,39,41,2
60,361,683,153,160,42,39,41,2
63,333,669,151,159,42,36,41,2
64,416,600,153,123,40,35,40,2
65,420,609,154,142,42,37,41,2
62,427,625,133,148,41,36,41,2
63,397,589,140,151,43,36,38,2
61,413,515,142,149,42,36,37,2
59,348,512,136,137,38,34,40,2
60,369,488,132,113,39,32,40,2
57,344,447,139,119,44,34,45,2
60,376,489,138,132,40,37,46,2
56,376,602,133,134,40,37,44,2
59,380,644,136,126,37,37,43,2
65,384,651,129,130,39,42,42,2
62,431,671,129,120,36,42,37,2
57,420,651,120,99,35,40,35,2
61,442,551,151,131,45,39,36,2
57,405,502,147,140,47,40,38,2
58,449,514,151,136,43,36,41,2
58,404,438,139,131,41,35,38,2
65,398,442,140,138,42,33,41,2
64,380,446,107,104,33,37,43,2
76,442,446,107,128,33,33,43,2
71,404,494,115,127,35,35,40,2
66,394,622,128,128,37,33,41,2
58,381,644,137,134,37,33,44,2
55,403,667,140,136,38,29,42,2
37,371,671,143,101,40,34,41,2
40,368,660,132,129,38,34,42,2
48,388,580,126,128,33,34,44,2
56,404,596,124,123,40,37,48,2
64,366,586,138,124,43,39,49,2
65,366,631,135,132,42,38,49,2
65,403,674,156,101,43,38,51,2
63,455,647,150,100,47,41,52,2
58,432,627,165,85,43,41,45,2
57,434,674,162,82,42,39,45,2
61,448,642,168,79,41,36,45,2
68,413,570,155,91,41,35,41,2
71,392,579,193,131,45,30,40,2
71,394,556,178,144,47,26,41,2
73,398,508,178,146,46,29,41,2
69,364,497,173,147,46,33,41,2
76,345,490,189,150,47,41,44,2
75,308,478,160,128,43,44,43,2
76,341,526,163,120,39,44,41,2
84,358,597,188,135,46,47,48,2
84,392,626,218,132,46,45,50,2
79,401,654,228,125,48,42,51,2
77,412,695,236,113,46,44,55,2
76,415,709,262,108,45,46,56,2
63,418,729,251,77,40,42,49,2
63,407,712,228,73,38,43,51,2
52,402,671,213,77,33,40,47,2
60,402,702,213,79,33,39,47,2
58,400,713,186,90,35,38,47,2
57,440,668,187,91,35,38,51,2
61,434,749,202,111,47,41,54,2
60,488,774,196,108,47,40,53,2
56,476,777,203,104,45,38,49,2
58,470,789,208,90,46,38,50,2
56,417,825,199,100,42,42,47,2
62,415,762,190,93,38,44,44,2
62,358,748,190,103,43,45,47,2
65,366,674,177,110,43,48,47,2
62,375,598,160,112,43,49,47,2
63,415,525,160,103,45,46,46,2
60,501,519,147,99,41,46,45,2
66,524,546,145,98,35,45,44,2
60,534,573,130,99,35,43,43,2
67,540,563,130,103,33,43,44,2
66,509,536,115,103,31,42,43,2
84,486,502,128,97,33,41,52,2
88,447,536,160,89,39,47,59,2
98,430,568,171,88,41,48,65,2
97,430,619,181,83,42,45,64,2
103,423,633,206,90,43,47,67,2
93,350,667,202,86,40,45,60,2
91,408,635,190,81,40,40,55,2
80,410,596,184,81,40,38,48,2
80,393,590,193,95,46,43,52,2
80,420,578,176,92,48,49,53,2
72,447,561,176,90,47,47,50,2
67,408,539,179,91,50,53,52,2
68,397,573,186,90,51,54,54,2
67,397,544,177,77,44,50,50,2
69,450,540,191,78,49,47,56,2
74,409,541,201,80,51,49,61,2
80,417,560,214,95,51,42,66,2
83,474,512,207,98,49,43,66,2
83,481,540,208,97,53,44,71,2
76,512,578,209,101,49,42,63,2
73,523,640,234,103,46,39,60,2
72,528,601,213,93,43,40,56,2
68,484,626,211,101,43,38,56,2
69,480,599,222,117,40,39,53,2
73,368,597,215,115,39,40,56,2
73,358,563,182,115,39,43,55,2
67,331,576,179,109,38,42,50,2
73,338,554,186,116,37,42,51,2
70,363,623,162,101,34,40,52,2
68,384,621,176,101,31,39,47,2
67,437,616,165,99,32,40,49,2
67,440,678,167,106,33,38,47,2
64,502,800,176,85,33,39,45,2
74,478,754,179,81,35,39,47,2
73,457,794,158,79,38,41,48,2
71,426,815,164,88,38,46,49,2
72,466,774,170,88,39,46,53,2
70,388,660,153,90,39,46,54,2
68,382,668,149,94,42,46,56,2
81,427,623,163,106,38,44,59,2
83,411,564,159,97,36,38,59,2
90,401,548,157,96,37,38,59,2
95,420,524,157,93,38,41,59,2
94,444,582,203,95,36,44,56,2
87,443,587,198,82,41,48,58,2
93,490,604,219,117,44,48,59,2
95,466,671,213,119,46,50,64,2
91,478,718,233,117,46,48,64,2
93,537,670,204,116,45,49,66,2
102,567,721,207,117,46,50,69,2
104,568,699,186,86,48,53,76,2
99,572,704,209,81,46,51,70,2
103,601,693,203,84,44,53,73,2
107,629,732,210,115,48,51,74,2
109,631,657,202,113,47,48,71,2
114,638,688,215,116,48,59,70,2
121,639,647,196,113,48,60,76,2
131,604,669,182,115,50,63,82,2
133,559,655,226,98,49,64,80,2
125,533,636,220,105,49,64,79,2
120,538,630,228,123,49,55,75,2
112,553,598,221,131,51,53,67,2
96,556,636,245,133,50,51,56,2
85,561,630,201,137,49,55,58,2
85,597,618,210,138,55,63,64,2
74,587,574,187,122,50,61,59,2
91,648,607,204,139,56,66,69,2
101,652,597,194,143,60,93,83,2
104,657,568,220,149,60,104,81,2
103,722,631,226,145,61,105,81,2
113,796,686,232,144,69,113,89,2
107,806,658,220,168,68,113,88,2
99,812,641,205,196,67,95,78,2
93,783,685,180,197,68,100,77,2
99,790,669,178,222,65,98,77,2
90,691,649,172,234,58,90,72,2
99,670,731,176,208,58,98,81,2
104,729,682,179,187,58,109,86,2
108,806,625,167,194,54,97,85,2
109,717,612,159,189,56,100,83,2
119,814,611,179,206,61,119,80,2
118,784,538,181,203,58,117,70,2
119,744,505,178,203,59,115,72,2
129,728,611,169,183,65,120,73,2
130,723,625,170,177,60,115,69,2
116,631,646,151,145,55,98,69,2
116,664,688,172,157,58,90,71,2
134,685,756,224,159,62,83,75,2
132,628,666,233,173,58,78,82,2
141,690,669,228,216,79,98,93,2
151,696,640,259,230,86,114,101,2
147,707,589,252,256,89,118,106,2
136,742,564,225,263,87,138,103,2
136,732,562,226,258,86,150,109,2
127,746,630,225,214,71,150,108,2
127,760,708,208,210,67,140,107,2
126,714,716,196,218,58,138,100,2
118,656,729,178,252,85,120,93,2
110,737,729,177,267,93,135,90,2
108,694,624,185,274,95,129,89,2
102,684,568,171,276,98,128,82,2
95,677,546,173,257,100,126,80,2
92,654,445,164,210,84,131,80,2
107,623,544,179,201,78,95,74,2
106,592,595,190,200,80,84,67,2
114,621,571,179,183,72,80,64,2
117,636,564,190,179,72,80,65,2
127,620,575,210,190,66,65,74,2
115,588,497,213,204,62,69,67,2
131,729,488,207,210,58,69,69,2
119,679,445,214,223,62,81,75,2
115,668,472,218,209,60,83,73,2
108,682,533,260,200,60,85,69,2
116,679,557,241,199,65,80,77,2
94,524,521,230,192,63,88,76,2
102,560,556,236,207,56,92,75,2
100,623,580,232,217,54,93,78,2
106,728,600,169,216,51,88,79,2
94,701,649,186,242,55,88,72,2
94,749,667,212,270,56,76,66,2
95,779,713,224,260,60,59,64,2
113,734,686,220,252,66,55,74,2
110,657,683,243,255,64,54,72,2
113,714,653,253,210,55,59,78,2
110,644,690,238,155,54,62,79,2
114,626,662,223,164,52,65,79,2
108,653,741,237,235,58,63,68,2
109,640,701,212,246,67,63,76,2
108,594,710,188,256,72,58,74,2
113,613,652,188,262,69,57,74,2
106,606,671,174,258,68,49,72,2
98,586,644,179,208,60,50,74,2
86,548,662,176,196,52,51,65,2
95,632,608,196,184,55,54,68,2
106,654,629,192,197,62,56,77,2
110,622,600,211,190,64,57,84,2
113,593,662,216,192,63,54,82,2
113,651,655,222,183,59,56,80,2
107,532,668,209,188,53,52,79,2
95,520,655,208,199,52,48,71,2
82,525,649,201,182,49,45,59,2
76,557,573,188,172,47,53,61,2
75,494,592,201,173,48,48,60,2
68,572,668,197,166,48,47,56,2
64,540,684,198,129,41,45,57,2
69,552,736,182,128,38,45,60,2
71,519,684,168,138,40,36,57,2
70,516,701,150,180,54,37,56,2
75,594,647,169,178,54,37,53,2
76,597,637,169,177,54,37,50,2
77,578,572,185,188,59,38,50,2
79,589,554,178,210,67,45,53,2
86,620,521,188,168,58,48,60,2
83,462,490,178,166,56,51,63,2
82,479,454,172,164,57,55,67,2
75,504,438,160,159,54,57,65,2
67,524,452,168,111,40,53,60,2
53,495,447,201,116,38,49,54,2
53,483,424,197,139,42,48,55,2
59,449,477,207,140,41,46,52,2
69,389,511,212,132,43,52,61,2
71,390,519,212,120,42,50,62,2
71,405,502,184,113,39,53,62,2
77,520,536,180,82,37,52,63,2
75,576,517,177,74,37,54,63,2
67,608,444,191,114,37,49,55,2
66,648,456,182,128,40,49,53,2
72,682,447,156,133,45,49,53,2
76,649,506,170,141,44,48,48,2
74,631,535,195,178,48,47,46,2
77,696,603,184,183,56,46,45,2
76,633,625,185,177,56,49,47,2
71,578,640,201,184,57,52,49,2
69,540,575,207,181,57,55,53,2
72,523,530,182,143,52,52,55,2
74,400,574,187,110,42,51,59,2
79,446,551,198,131,48,54,64,2
81,507,564,187,188,48,60,68,2
82,549,553,187,193,47,60,63,2
93,597,576,206,211,56,63,72,2
89,636,515,222,214,56,68,74,2
89,597,519,207,203,49,67,75,2
93,598,488,213,145,45,60,72,2
87,621,509,198,147,49,66,75,2
83,636,559,170,121,41,65,72,2
87,614,543,145,113,45,65,69,2
85,632,566,150,106,48,69,64,2
82,594,573,142,125,50,67,64,2
81,527,571,150,106,49,61,67,2
75,478,522,172,119,51,62,58,2
71,532,555,164,151,59,60,59,2
76,536,530,175,193,62,59,63,2
74,582,557,190,180,60,62,62,2
78,636,580,184,202,60,65,60,2
75,620,566,173,209,61,65,61,2
78,561,512,172,194,51,62,63,2
75,551,513,241,152,49,56,59,2
72,522,494,232,149,49,55,57,2
66,440,492,236,131,48,48,54,2
68,514,535,363,121,46,47,58,2
68,525,565,398,123,44,50,57,2
63,535,633,378,120,39,47,55,2
64,527,621,416,137,39,46,56,2
65,556,602,428,157,39,44,56,2
66,482,615,331,149,34,41,51,2
74,493,660,351,139,38,47,56,2
78,534,580,341,154,41,49,61,2
79,539,583,307,141,44,50,64,2
79,554,569,337,153,45,51,63,2
79,557,508,354,151,48,57,67,2
71,535,491,302,154,44,49,60,2
71,484,513,293,141,44,50,60,2
75,618,543,366,150,47,52,67,2
75,614,572,329,98,45,51,69,2
82,591,577,338,149,50,50,72,2
81,584,548,349,177,53,54,75,2
83,576,504,370,191,55,52,76,2
80,388,454,286,189,54,54,71,2
83,354,506,310,194,57,58,72,2
76,383,523,276,175,66,54,67,2
73,359,483,258,145,63,51,65,2
92,329,491,267,135,67,54,71,2
102,413,475,271,139,67,57,74,2
98,433,401,238,148,69,60,77,2
93,416,351,252,135,55,65,73,2
94,439,338,301,140,55,66,70,2
80,469,499,289,161,49,64,70,2
71,386,518,309,150,42,58,66,2
74,359,597,324,141,39,52,61,2
76,355,616,317,136,40,43,62,2
81,435,642,267,150,51,42,67,2
69,453,541,268,129,53,41,55,2
67,495,548,250,131,54,39,49,2
65,521,459,262,138,52,44,50,2
61,518,436,271,139,50,47,51,2
60,466,391,272,130,39,45,50,2
64,450,377,297,126,41,49,54,2
61,455,436,299,135,46,49,54,2
66,413,545,273,129,47,43,54,2
72,465,594,264,122,47,43,55,2
69,443,619,308,120,47,42,51,2
80,499,637,263,123,46,43,53,2
79,451,588,250,124,40,45,57,2
79,474,487,268,119,40,49,56,2
79,427,487,303,120,42,53,56,2
82,494,496,262,142,45,57,58,2
71,405,491,256,135,40,53,52,2
76,449,484,265,141,44,54,52,2
77,452,529,278,143,44,50,55,2
77,488,547,240,156,45,46,54,2
79,462,578,237,149,47,45,53,2
75,468,571,237,149,47,45,50,2
72,433,602,225,155,44,43,53,2
68,402,572,204,155,43,45,46,2
68,438,523,203,160,41,47,49,2
63,377,477,202,144,37,45,51,2
76,393,546,192,147,37,46,59,2
74,426,530,210,149,36,44,54,2
72,412,501,241,191,36,43,58,2
69,332,537,256,184,36,39,55,2
67,366,622,260,184,36,37,54,2
65,353,638,272,183,44,34,47,2
67,317,654,281,174,45,34,46,2
65,334,757,229,131,43,33,44,2
68,332,730,203,121,45,40,47,2
71,445,718,202,117,46,46,48,2
68,477,666,279,138,41,48,49,2
65,495,700,259,123,41,49,50,2
79,537,625,260,121,45,58,63,2
85,542,732,335,142,54,54,67,2
85,463,698,338,156,52,50,67,2
83,427,697,324,141,51,50,68,2
92,445,655,318,145,54,51,78,2
86,447,658,327,153,53,45,72,2
78,464,600,254,129,44,51,66,2
74,449,624,266,121,43,50,63,2
77,547,669,291,122,46,65,71,2
65,513,637,303,115,44,69,67,2
64,475,620,294,135,45,79,66,2
67,474,566,310,165,54,76,68,2
70,499,516,334,175,53,77,70,2
73,450,434,262,173,54,69,62,2
75,513,468,265,177,55,66,58,2
75,564,510,292,154,53,61,58,2
71,568,508,310,137,44,64,58,2
73,559,553,282,121,43,65,64,2
78,533,606,280,160,42,68,72,2
77,469,599,275,160,39,68,70,2
82,454,567,274,177,44,66,72,2
80,432,569,267,171,43,65,70,2
76,423,526,252,171,45,63,64,2
62,390,456,242,134,40,54,52,2
62,403,456,241,138,42,53,52,2
54,461,516,226,146,39,46,46,2
54,450,544,206,142,42,46,45,2
61,421,534,213,137,42,48,53,2
65,450,569,218,134,42,48,54,2
72,506,575,257,158,43,50,55,2
68,380,521,248,147,43,52,52,2
72,400,484,240,157,41,50,52,2
70,458,510,247,163,43,49,44,2
68,451,529,249,183,46,51,45,2
62,391,584,260,155,47,49,46,2
61,403,611,265,139,44,48,42,2
81,407,601,282,155,45,51,58,2
83,367,643,279,150,43,56,62,2
81,345,609,276,130,39,55,62,2
89,338,583,273,136,34,52,66,2
90,362,544,266,131,33,53,68,2
70,342,567,244,92,29,47,56,2
66,363,533,252,104,32,42,48,2
63,367,519,248,110,34,44,48,2
48,382,463,226,103,40,43,42,2
47,381,526,255,113,40,38,41,2
45,391,547,255,115,40,38,37,2
45,401,508,243,117,37,36,37,2
52,428,520,315,109,38,35,37,2
53,423,528,286,136,34,34,36,2
56,409,452,252,127,33,39,38,2
57,456,453,249,126,36,41,42,2
58,463,457,262,117,34,47,47,2
59,456,463,195,134,40,49,48,2
59,459,477,218,111,39,50,46,2
55,473,474,221,132,43,47,45,2
65,432,436,217,133,42,49,46,2
77,398,437,228,159,45,46,46,2
83,370,446,213,144,41,43,51,2
85,365,413,200,139,41,49,54,2
90,392,430,213,141,42,50,55,2
86,394,422,242,142,41,49,54,2
77,436,565,247,153,40,47,52,2
70,475,567,247,163,41,49,44,2
65,493,613,243,165,40,47,42,2
57,467,594,281,151,38,46,38,2
49,453,610,292,152,39,45,35,2
46,442,454,265,123,41,49,43,2
44,434,448,266,123,41,47,43,2
54,419,390,281,130,41,46,49,2
58,437,417,289,134,42,46,51,2
62,420,374,254,138,40,50,53,2
65,359,397,252,122,35,46,46,2
70,348,434,245,126,42,47,48,2
67,437,527,239,118,43,48,43,2
67,415,511,228,112,41,48,43,2
63,432,512,230,122,42,44,42,2
62,516,517,226,129,49,44,46,2
57,495,453,239,123,43,45,46,2
57,407,364,246,125,41,41,47,2
63,416,422,199,122,48,42,49,2
71,442,425,205,104,48,43,54,2
71,449,395,205,98,45,43,48,2
69,481,458,195,91,49,42,49,2
65,534,539,200,103,50,46,49,2
62,542,578,219,132,43,46,48,2
54,514,593,233,134,44,47,45,2
57,462,634,236,140,42,46,49,2
71,444,635,255,133,37,46,52,2
81,401,583,255,125,39,44,54,2
83,427,509,255,99,38,43,52,2
90,464,589,245,99,38,39,54,2
90,497,597,243,91,45,41,58,2
81,493,565,269,88,46,40,58,2
79,500,561,277,106,48,39,59,2
74,449,576,273,102,51,40,62,2
66,439,504,282,107,51,40,60,2
67,500,525,293,106,45,41,56,2
68,525,556,297,107,43,39,50,2
68,524,573,280,99,42,44,58,2
68,566,570,267,100,38,44,59,2
75,577,586,267,86,38,46,59,2
101,527,600,301,85,46,50,69,2
100,581,600,262,85,47,54,74,2
98,583,581,248,85,46,61,74,2
103,575,601,281,87,48,62,73,2
103,573,640,297,89,51,64,75,2
87,606,596,282,91,46,63,70,2
88,612,613,278,107,47,64,66,2
89,607,659,282,140,55,63,63,2
91,597,644,273,143,56,67,64,2
89,565,594,286,150,56,65,61,2
76,504,575,260,150,52,61,55,2
78,452,606,278,152,50,61,59,2
77,524,568,290,110,41,55,55,2
71,575,608,266,113,43,52,64,2
76,664,615,259,148,49,54,68,2
79,709,665,254,149,52,62,75,2
110,741,639,271,173,68,69,91,2
120,789,603,260,181,69,69,92,2
129,812,593,262,180,65,67,88,2
126,795,656,219,162,67,68,88,2
131,797,730,281,164,68,65,88,2
111,790,688,252,149,62,57,74,2
106,790,758,256,140,63,55,78,2
117,793,738,253,146,68,61,80,2
121,770,730,254,140,59,60,80,2
123,753,626,274,139,57,57,77,2
119,753,619,268,111,49,63,74,2
120,735,626,273,107,48,64,74,2
99,713,652,271,89,42,62,70,2
98,736,594,273,70,41,64,74,2
117,747,608,201,70,48,72,90,2
132,767,613,248,75,49,69,95,2
157,791,543,241,77,47,69,96,2
163,817,533,240,76,48,68,95,2
165,808,491,231,74,48,67,94,2
148,806,471,218,77,40,58,81,2
138,818,656,222,86,42,54,76,2
101,762,743,238,100,46,52,68,2
114,765,716,250,108,50,57,69,2
120,746,761,271,177,53,62,70,2
126,720,843,274,203,64,64,73,2
127,654,750,282,202,63,73,75,2
132,634,685,278,205,65,74,76,2
118,581,743,276,205,66,77,81,2
122,686,784,277,160,67,79,83,2
122,698,686,332,132,59,75,80,2
116,691,663,287,129,56,65,75,2
114,708,645,273,114,51,65,74,2
113,694,632,266,107,44,59,69,2
98,628,566,251,92,39,47,62,2
92,610,611,190,67,39,51,57,2
95,664,601,238,61,43,53,60,2
103,705,635,248,56,42,49,59,2
100,732,570,248,68,47,47,57,2
101,774,565,245,101,47,45,54,2
103,788,506,254,110,45,42,57,2
96,722,562,264,114,42,43,58,2
81,658,535,251,118,42,42,53,2
78,619,558,276,112,35,36,52,2
98,515,582,283,87,40,49,68,2
97,529,557,282,78,43,52,67,2
105,613,583,237,87,42,52,66,2
134,674,613,245,90,45,56,80,2
139,689,629,248,99,46,57,84,2
128,708,651,255,112,46,49,77,2
130,718,691,253,210,66,46,78,2
126,687,697,243,240,71,52,81,2
98,638,713,235,242,70,54,72,2
91,632,718,200,256,73,56,70,2
93,602,690,265,260,77,57,73,2
88,608,694,258,204,57,61,69,2
93,592,622,258,185,52,53,63,2
94,583,576,272,185,53,55,62,2
101,572,548,269,184,53,56,59,2
103,649,515,218,183,50,66,55,2
119,599,553,208,196,55,67,68,2
120,640,589,221,225,63,66,70,2
118,649,559,273,223,61,62,74,2
112,627,567,282,213,59,64,78,2
101,577,578,265,203,54,54,78,2
85,573,511,251,187,53,53,72,2
78,497,502,248,203,53,53,69,2
78,451,535,177,218,60,58,65,2
74,588,509,162,222,61,53,61,2
78,632,535,223,238,66,61,57,2
67,663,575,241,236,64,59,52,2
63,679,534,250,199,56,58,54,2
73,686,491,248,198,55,57,57,2
77,586,514,249,187,51,56,54,2
78,526,466,197,163,46,46,56,2
78,490,452,172,151,45,48,61,2
77,483,475,146,109,42,49,59,2
68,490,484,148,90,34,49,58,2
69,524,495,146,80,34,50,61,2
68,512,534,208,158,52,51,62,2
67,489,501,215,161,53,47,55,2
70,481,541,261,193,59,46,53,2
75,513,598,267,193,63,41,52,2
71,460,571,286,229,69,42,53,2
73,550,584,248,193,59,41,49,2
78,588,605,249,195,59,41,50,2
78,642,570,236,211,61,43,54,2
81,663,531,231,255,85,47,56,2
83,675,586,220,230,83,52,55,2
92,612,607,215,226,86,52,58,2
89,605,584,209,230,89,54,61,2
98,619,652,222,214,88,60,70,2
90,589,664,238,166,65,56,67,2
98,586,684,237,169,63,52,69,2
88,590,644,231,171,60,53,68,2
100,625,675,254,161,53,57,72,2
93,563,727,267,127,49,50,64,2
97,575,781,259,137,51,50,66,2
85,611,775,288,156,51,47,61,2
83,603,828,310,172,67,44,62,2
72,573,854,323,176,68,37,56,2
71,589,769,300,175,67,38,53,2
66,576,752,306,160,66,38,49,2
69,541,729,273,149,67,39,52,2
68,544,732,259,139,75,40,48,2
86,522,726,229,134,80,45,56,2
84,481,740,200,149,81,45,54,2
89,445,721,188,157,81,45,55,2
91,418,684,180,159,80,45,55,2
94,482,619,167,157,60,45,60,2
79,488,580,187,157,52,41,49,2
80,505,635,188,140,49,41,54,2
73,513,646,214,132,45,41,52,2
72,518,690,227,144,43,45,56,2
65,485,724,240,143,36,43,51,2
58,492,751,266,185,45,42,49,2
61,490,693,303,208,46,38,45,2
65,481,652,275,206,47,42,49,2
74,563,635,277,186,49,38,42,2
73,513,557,262,193,50,39,41,2
77,511,494,229,150,43,39,43,2
81,509,501,221,125,48,46,55,2
83,510,538,232,132,48,43,56,2
82,459,519,229,132,45,44,58,2
83,465,559,236,109,46,45,59,2
93,503,561,243,124,48,45,62,2
90,503,562,260,120,47,42,51,2
84,506,515,258,115,45,41,48,2
75,452,519,270,124,46,38,46,2
78,462,563,273,122,46,37,55,2
58,379,561,303,125,47,40,56,2
56,472,514,255,124,42,38,56,2
58,474,507,262,118,44,40,58,2
54,541,513,240,118,41,41,56,2
66,652,429,232,122,39,39,47,2
71,680,413,175,123,37,35,44,2
71,654,422,191,122,36,32,44,2
74,666,476,176,121,39,37,47,2
76,666,610,185,104,40,37,49,2
63,586,598,179,108,42,40,50,2
71,568,617,157,99,43,43,53,2
74,527,602,151,100,43,45,53,2
74,524,553,217,107,41,42,50,2
72,465,384,215,107,38,42,45,2
74,447,431,237,97,37,40,45,2
75,478,538,250,97,37,40,47,2
69,482,550,250,97,37,39,47,2
69,492,649,310,93,37,41,50,2
77,512,713,314,112,42,42,57,2
87,483,749,324,134,53,44,65,2
78,431,746,349,125,52,39,59,2
84,445,754,370,130,53,38,58,2
84,393,678,278,126,53,40,57,2
84,377,658,283,124,49,37,54,2
86,371,627,266,112,41,40,52,2
91,476,530,239,125,44,44,54,2
95,578,539,228,124,47,46,58,2
94,617,600,229,129,46,43,56,2
93,614,564,234,128,48,43,56,2
77,608,523,223,120,46,39,46,2
73,530,498,200,124,47,36,45,2
62,378,529,219,127,42,35,41,2
66,449,511,232,134,46,37,48,2
63,455,603,238,125,44,40,47,2
69,507,613,241,126,45,38,50,2
73,543,655,272,107,40,41,53,2
77,564,643,263,110,42,41,55,2
71,449,659,250,95,38,42,48,2
64,466,542,231,104,43,40,48,2
66,420,561,244,120,44,42,47,2
66,421,553,253,121,41,42,45,2
67,457,548,223,114,41,46,48,2
75,542,463,226,119,43,47,51,2
78,575,509,230,110,38,44,51,2
74,583,468,215,92,33,42,49,2
68,625,480,214,92,33,38,44,2
66,603,451,212,90,31,36,39,2
61,595,472,244,101,29,34,32,2
61,529,496,271,100,29,34,35,2
60,507,560,275,110,28,36,37,2
57,455,576,245,111,31,38,40,2
56,490,587,274,118,32,39,40,2
62,458,580,252,106,34,39,42,2
64,464,531,238,111,36,39,44,2
65,509,546,251,98,36,39,42,2
72,485,527,263,94,35,39,44,2
80,495,527,240,90,36,35,49,2
74,481,524,241,93,33,33,46,2
72,478,554,256,90,31,32,45,2
75,451,520,237,93,30,31,48,2
71,431,473,243,97,30,32,50,2
61,376,504,245,88,29,33,47,2
62,372,577,231,82,30,36,51,2
66,462,573,274,92,36,39,58,2
62,473,614,283,98,36,42,57,2
61,472,639,262,104,37,39,52,2
61,446,621,274,118,38,40,53,2
65,412,553,284,115,37,38,52,2
66,342,546,267,109,35,39,43,2
72,323,550,282,101,36,37,44,2
80,436,639,301,106,40,41,55,2
81,446,655,278,114,42,38,51,2
77,459,673,283,129,48,39,50,2
72,449,684,223,125,46,35,50,2
67,444,609,232,127,47,35,51,2
56,392,565,218,114,42,31,43,2
59,398,522,228,95,42,36,46,2
59,385,557,220,79,40,37,45,2
64,364,591,243,99,44,40,51,2
63,408,652,251,121,43,39,47,2
65,378,613,244,129,50,43,47,2
63,427,687,246,125,47,39,47,2
63,510,664,243,127,44,40,47,2
62,518,603,251,113,41,38,42,2
76,484,532,234,104,45,42,47,2
79,465,541,233,108,36,37,44,2
77,400,464,227,111,37,39,45,2
80,469,452,229,110,46,45,52,2
80,527,550,199,108,44,44,54,2
67,569,625,252,98,40,40,50,2
63,594,626,258,87,41,41,51,2
63,596,665,257,90,41,40,51,2
66,509,675,272,89,36,39,48,2
70,466,607,265,91,36,38,44,2
71,488,556,207,131,44,39,49,2
69,472,570,228,128,45,38,48,2
72,497,545,233,126,49,42,48,2
67,565,528,233,139,46,39,47,2
60,551,542,236,142,48,40,47,2
57,518,548,310,102,42,40,41,2
63,570,507,286,104,41,41,42,2
54,548,491,292,98,37,36,40,2
55,437,476,279,81,41,35,42,2
55,429,435,283,79,40,35,43,2
52,393,456,240,81,40,33,44,2
46,292,468,250,78,39,38,42,2
52,371,518,241,85,39,40,46,2
51,386,534,238,82,35,39,42,2
50,459,618,229,83,32,40,43,2
59,459,582,152,92,30,41,44,2
61,473,561,215,95,31,39,47,2
64,444,524,217,92,31,38,45,2
82,484,505,221,87,31,43,54,2
92,446,405,235,90,36,45,59,2
85,471,386,252,76,37,48,59,2
84,474,420,203,82,46,49,59,2
84,487,468,253,92,47,49,59,2
76,476,475,247,95,45,45,57,2
63,477,474,260,106,44,39,48,2
66,462,505,288,111,45,35,48,2
62,441,493,278,105,34,36,45,2
63,407,399,262,106,36,37,47,2
50,367,410,275,159,42,38,43,2
53,355,422,266,148,41,43,46,2
51,380,418,224,149,40,43,46,2
57,401,544,229,151,40,43,48,2
52,425,531,188,143,40,46,49,2
57,413,588,203,87,40,46,46,2
55,464,586,223,108,40,43,45,2
60,438,624,231,119,44,42,45,2
59,428,502,224,128,45,37,45,2
59,412,536,233,128,44,35,41,2
57,398,450,270,122,42,36,43,2
69,339,476,251,117,41,35,44,2
69,330,495,258,101,39,38,48,2
70,446,517,270,85,40,40,51,2
71,449,514,291,94,38,40,50,2
70,468,518,277,100,34,37,51,2
68,509,534,279,122,37,41,50,2
71,557,464,271,125,39,42,49,2
74,468,474,262,127,36,45,53,2
72,470,551,240,130,37,42,52,2
81,509,606,263,126,41,49,59,2
86,479,668,276,95,42,49,66,2
87,452,696,266,127,41,52,71,2
90,463,681,267,129,43,48,68,2
92,483,625,275,121,42,51,70,2
90,463,605,267,125,42,44,67,2
100,446,511,279,126,43,48,69,2
106,444,531,301,112,44,45,65,2
103,436,583,313,112,45,45,63,2
106,407,593,304,131,48,47,68,2
106,429,559,293,144,48,47,67,2
87,468,567,292,142,47,46,62,2
76,529,512,280,128,47,43,58,2
75,514,467,272,130,47,42,58,2
83,508,425,269,111,45,41,60,2
80,481,415,230,87,49,47,60,2
94,511,480,258,91,48,42,58,2
97,501,524,270,87,47,47,61,2
98,513,504,267,81,46,49,62,2
94,550,534,277,79,47,50,56,2
95,574,584,272,102,42,44,52,2
85,533,587,264,99,41,43,54,2
93,540,559,246,95,40,40,52,2
100,586,636,252,101,45,44,57,2
111,617,623,244,109,54,43,61,2
135,680,633,250,101,64,53,84,2
138,693,659,212,117,64,58,86,2
136,697,682,259,118,64,58,88,2
132,689,627,259,118,59,57,86,2
137,678,628,271,127,61,62,88,2
126,649,629,290,138,58,59,72,2
125,639,610,283,126,60,58,69,2
125,623,653,252,134,62,60,70,2
127,632,670,277,157,64,61,73,2
119,650,724,277,151,59,56,71,2
110,654,729,265,145,55,55,72,2
114,671,712,262,156,60,54,76,2
119,660,717,263,167,64,54,78,2
126,681,745,262,146,68,59,77,2
119,668,698,253,141,66,59,73,2
119,683,723,254,130,66,60,74,2
124,715,695,259,120,63,67,78,2
139,736,631,259,103,68,67,93,2
161,788,602,268,107,72,81,112,2
167,764,667,274,111,76,80,116,2
165,706,609,258,106,72,79,113,2
162,647,627,247,101,76,76,115,2
154,660,646,229,110,73,84,106,2
126,541,618,185,110,64,66,85,2
114,533,598,199,102,59,67,82,2
115,594,615,195,123,62,65,79,2
123,616,624,207,187,57,63,68,2
116,692,607,267,194,55,52,63,2
110,749,602,263,222,58,55,66,2
121,808,559,251,227,59,56,68,2
134,819,530,261,221,63,61,76,2
118,823,500,308,171,60,59,78,2
113,814,552,284,156,60,59,81,2
111,774,595,290,101,54,53,74,2
110,769,578,286,87,54,51,71,2
107,732,607,284,91,49,52,78,2
117,708,610,221,106,49,52,83,2
135,631,618,264,124,45,52,88,2
137,640,583,274,156,50,55,92,2
142,609,642,272,173,50,59,91,2
135,600,639,269,166,49,53,87,2
129,631,602,276,162,48,53,79,2
110,608,567,212,147,47,52,64,2
110,593,558,238,118,44,51,64,2
100,633,529,243,111,39,50,65,2
95,615,501,254,114,43,53,66,2
93,626,609,272,113,45,52,67,2
89,666,624,281,129,43,48,67,2
97,680,642,279,131,46,52,72,2
112,656,635,312,135,58,54,75,2
110,667,666,302,130,55,50,69,2
113,718,600,306,127,57,56,75,2
112,680,579,297,117,57,58,74,2
105,679,571,265,110,54,54,69,2
82,642,545,244,90,43,50,65,2
80,640,565,251,100,44,47,63,2
79,541,584,227,107,44,44,58,2
89,547,583,252,115,53,51,72,2
95,566,625,266,119,56,50,73,2
113,580,676,256,131,65,59,87,2
114,564,619,290,136,68,62,89,2
114,554,583,282,129,66,63,92,2
122,504,599,252,119,60,59,88,2
117,439,566,247,114,59,58,85,2
114,463,488,229,97,49,50,72,2
112,474,467,172,80,43,46,69,2
109,455,458,162,85,40,39,63,2
99,501,428,158,84,39,40,61,2
100,529,445,144,97,44,51,70,2
85,553,506,191,103,44,50,65,2
86,554,652,191,101,45,49,61,2
82,549,648,210,104,45,49,58,2
81,596,631,218,98,44,49,55,2
81,563,630,221,93,38,39,49,2
89,540,604,206,95,39,40,64,2
88,561,477,222,96,41,43,70,2
94,649,482,224,83,43,48,79,2
85,583,459,217,84,42,49,76,2
82,640,395,253,75,42,48,73,2
87,617,384,242,64,43,50,70,2
87,607,436,241,67,45,55,71,2
83,544,498,243,64,44,53,66,2
81,534,527,248,63,45,52,70,2
96,511,551,290,70,49,55,71,2
98,512,595,302,76,49,62,78,2
113,545,541,293,74,47,59,79,2
125,578,485,284,77,48,60,82,2
132,659,465,291,76,47,59,79,2
125,746,482,211,64,42,62,78,2
121,752,537,234,64,41,53,68,2
116,822,521,242,73,44,51,64,2
105,838,564,239,70,45,49,63,2
94,793,574,290,76,48,51,64,2
92,696,599,282,79,50,49,68,2
104,695,534,240,74,49,57,76,2
100,570,572,236,65,46,56,75,2
107,539,545,272,70,47,56,74,2
117,510,641,212,62,46,57,78,2
121,566,625,211,58,44,55,78,2
109,526,593,235,64,47,50,71,2
110,548,601,243,62,46,52,71,2
101,585,632,245,56,43,53,68,2
96,597,565,260,56,40,53,61,2
119,564,561,287,61,44,58,71,2
125,586,576,302,60,44,57,76,2
123,593,625,320,65,46,59,78,2
136,549,593,306,66,46,61,85,2
140,553,545,286,65,48,60,89,2
120,560,551,284,71,49,60,86,2
115,535,560,263,74,50,63,84,2
120,496,503,253,75,54,62,86,2
106,478,484,235,75,53,59,77,2
101,487,493,235,74,51,56,75,2
103,437,473,225,66,46,49,68,2
116,450,502,246,57,44,44,67,2
127,473,498,224,51,42,43,66,2
143,488,583,227,53,46,46,77,2
140,453,584,230,57,46,54,75,2
142,467,568,216,56,48,57,73,2
131,465,547,192,53,48,58,77,2
117,440,506,220,52,46,58,73,2
98,406,459,228,57,41,53,61,2
98,389,526,270,61,42,46,61,2
83,363,579,361,89,39,43,58,2
81,381,570,411,102,38,41,55,2
78,372,605,411,118,38,40,55,2
102,410,561,420,114,41,42,61,2
102,450,529,423,112,44,45,62,2
106,486,482,366,93,42,45,64,2
107,476,471,324,87,39,40,55,2
108,467,514,359,75,41,41,56,2
92,433,523,340,79,38,37,53,2
105,420,481,306,85,35,36,58,2
107,388,456,282,85,38,36,58,2
99,346,444,280,87,43,37,59,2
98,415,356,214,87,41,36,63,2
95,388,376,220,83,41,39,62,2
94,465,428,215,81,41,40,64,2
94,479,435,245,90,38,38,65,2
98,569,545,235,88,31,43,62,2
92,527,558,220,78,31,44,56,2
91,570,578,271,79,31,45,57,2
76,525,549,267,79,30,46,49,2
76,513,577,237,70,29,49,54,2
68,449,510,256,75,36,45,54,2
75,476,527,255,80,36,46,53,2
73,433,541,231,78,35,44,52,2
72,435,549,237,73,38,43,59,2
81,425,571,243,74,41,44,54,2
86,398,556,197,69,39,45,61,2
99,367,555,225,73,45,47,74,2
102,363,494,203,76,46,50,72,2
105,334,541,193,76,50,58,74,2
106,346,564,205,75,50,59,84,2
111,370,603,203,67,49,58,81,2
104,365,634,227,63,44,56,74,2
110,386,640,222,73,46,60,80,2
111,411,598,233,77,41,57,80,2
101,441,599,226,78,39,57,73,2
93,462,563,224,81,37,59,74,2
87,460,554,228,80,41,62,74,2
79,464,592,218,75,40,58,71,2
72,479,582,237,75,39,53,63,2
67,449,564,233,66,39,50,56,2
71,397,621,266,65,40,47,52,2
78,408,618,224,67,40,48,54,2
87,413,622,228,59,40,56,67,2
105,385,664,229,56,44,61,78,2
109,392,615,249,66,50,61,83,2
109,498,619,263,84,50,60,84,2
102,593,637,284,85,50,60,85,2
96,678,638,295,86,51,53,74,2
85,667,614,307,92,48,49,67,2
89,674,676,286,107,44,50,65,2
87,718,654,267,95,44,50,63,2
99,692,606,288,95,44,47,61,2
102,657,616,275,99,42,47,65,2
104,658,643,249,101,44,47,66,2
101,648,604,270,89,44,48,71,2
101,509,542,248,89,43,51,75,2
91,445,544,274,96,40,49,71,2
87,365,570,282,94,41,54,70,2
79,355,572,282,91,39,52,64,2
75,410,654,287,82,40,47,56,2
78,486,720,322,92,40,47,52,2
73,477,720,270,85,39,49,53,2
71,479,654,257,83,37,45,55,2
76,493,659,281,84,38,44,58,2
78,447,570,271,83,36,48,58,2
85,378,503,224,70,36,51,59,2
91,378,559,247,67,39,49,57,2
87,353,564,263,63,38,45,49,2
82,331,519,249,70,35,48,49,2
78,354,535,235,78,34,44,46,2
60,333,538,264,78,35,41,44,2
57,386,488,231,89,34,42,50,2
59,375,511,252,92,37,43,55,2
73,378,604,250,91,42,42,63,2
93,384,573,259,98,50,53,82,2
95,400,554,275,103,50,56,82,2
98,398,583,282,98,48,56,80,2
99,418,644,252,102,48,57,78,2
86,414,603,245,101,45,56,71,2
64,373,614,242,90,36,47,49,2
67,354,621,236,91,37,43,48,2
95,351,624,246,123,51,48,71,2
98,342,566,259,121,54,48,74,2
102,337,511,257,121,56,47,74,2
104,354,513,246,120,57,52,77,2
107,384,548,216,114,56,53,78,2
81,362,506,220,75,46,53,66,2
75,387,474,205,71,43,54,63,2
76,405,456,195,58,43,56,65,2
74,420,438,209,85,42,55,65,2
65,417,410,193,87,41,55,63,2
59,459,396,166,87,38,52,53,2
57,448,486,208,89,37,48,50,2
51,442,602,218,101,36,47,50,2
63,454,631,222,96,40,50,55,2
65,465,671,227,114,39,46,52,2
65,408,725,222,121,41,52,57,2
74,465,710,180,119,41,54,60,2
73,455,623,214,109,37,54,58,2
70,416,647,224,97,36,48,53,2
78,426,630,235,84,39,50,56,2
80,439,573,247,72,37,44,54,2
83,397,538,260,70,37,43,53,2
89,412,529,257,76,43,43,58,2
83,423,541,249,74,41,40,53,2
81,390,501,245,63,39,38,55,2
80,377,526,245,63,38,34,51,2
73,383,547,231,72,39,45,54,2
75,379,616,273,69,35,47,55,2
81,388,644,275,80,37,49,58,2
81,431,657,277,82,40,53,57,2
84,424,629,276,86,40,55,59,2
95,440,660,278,82,41,54,59,2
93,428,599,198,91,42,52,57,2
90,412,509,214,83,44,51,55,2
98,385,563,208,92,50,55,63,2
97,365,644,193,102,54,63,69,2
84,311,581,184,100,55,56,64,2
87,301,634,196,104,59,62,69,2
85,309,677,227,110,59,63,70,2
87,310,670,235,107,55,58,70,2
88,388,628,245,99,51,50,67,2
89,388,644,249,101,48,49,67,2
85,427,670,249,89,43,42,63,2
87,445,669,200,80,38,40,63,2
69,431,628,237,75,34,38,53,2
71,429,598,228,69,38,40,51,2
88,416,610,234,84,48,49,67,2
98,381,593,249,102,53,57,72,2
114,480,665,301,157,71,67,81,2
121,495,725,318,165,75,73,84,2
121,473,741,322,171,77,70,84,2
120,491,738,343,170,73,75,83,2
132,519,748,357,164,77,78,91,2
127,488,660,310,134,69,74,88,2
124,464,625,258,124,65,70,87,2
125,556,618,301,119,65,73,92,2
115,566,591,280,110,62,66,85,2
104,562,551,260,117,62,64,82,2
95,494,617,260,102,58,62,78,2
107,506,624,279,104,61,65,86,2
110,374,674,263,110,62,65,84,2
111,419,709,310,117,64,63,85,2
103,410,715,297,106,53,54,78,2
124,527,715,300,118,60,59,89,2
119,559,718,283,119,59,56,84,2
145,670,768,282,114,62,59,93,2
147,691,795,233,112,61,60,93,2
147,719,815,283,110,62,60,90,2
142,685,904,314,97,57,54,82,2
139,659,902,324,98,54,56,78,2
114,586,829,296,90,45,47,62,2
113,560,845,291,91,43,47,58,2
110,570,861,243,89,44,49,61,2
96,536,716,240,88,41,50,59,2
92,538,679,222,86,42,45,57,2
89,543,700,250,98,46,56,65,2
90,491,607,244,95,46,59,69,2
95,535,594,242,93,47,61,69,2
101,570,591,220,89,47,57,66,2
99,587,596,270,92,47,57,67,2
94,562,548,252,81,42,50,60,2
96,588,580,281,82,44,46,60,2
93,510,568,284,83,40,40,57,2
83,442,542,276,80,41,43,60,2
103,463,616,242,82,47,52,74,2
101,418,630,245,81,48,50,73,2
95,400,629,211,78,46,48,70,2
95,389,602,211,83,47,49,72,2
94,392,668,212,82,46,46,68,2
79,377,638,209,74,39,40,56,2
76,420,626,196,74,37,38,56,2
70,389,591,250,72,36,38,51,2
69,434,634,277,70,35,43,52,2
65,478,638,270,71,35,45,51,2
62,489,660,258,64,33,40,46,2
62,483,651,261,64,33,39,43,2
62,490,673,286,61,31,39,44,2
67,472,620,267,91,33,36,43,2
69,439,584,274,92,32,34,42,2
62,370,480,269,94,32,41,41,2
86,351,517,310,100,45,58,67,2
88,339,482,274,99,50,62,71,2
104,390,495,273,73,51,68,84,2
109,470,516,273,72,55,69,91,2
111,489,546,274,70,55,68,92,2
93,480,490,223,59,44,55,76,2
98,502,532,212,72,39,49,74,2
69,417,499,236,67,36,38,52,2
67,374,511,230,67,31,42,42,2
62,349,511,235,69,28,38,38,2
64,353,511,235,69,29,37,38,2
52,327,491,217,57,30,42,38,2
52,350,524,234,56,28,42,43,2
43,263,419,226,52,28,47,43,2
57,339,391,225,52,30,47,43,2
60,372,429,248,71,33,51,48,2
62,369,451,243,73,35,59,52,2
71,443,513,237,71,36,60,50,2
74,461,525,238,79,35,56,52,2
66,416,529,247,79,35,58,53,2
63,385,543,219,64,35,58,50,2
66,440,536,213,57,33,47,50,2
62,364,425,142,56,35,52,55,2
60,388,475,217,47,38,49,50,2
60,413,462,203,42,37,47,51,2
65,418,464,215,42,37,50,53,2
70,442,505,238,73,36,50,52,2
64,417,519,241,73,34,44,46,2
65,393,507,219,72,33,48,51,2
64,356,562,225,74,32,49,53,2
62,359,568,215,76,32,44,52,2
56,254,539,200,56,33,43,50,2
58,275,544,205,58,33,42,50,2
53,251,579,160,54,32,38,47,2
55,314,587,179,51,32,37,43,2
62,337,587,198,52,30,36,41,2
58,347,554,193,52,31,38,39,2
59,339,603,211,53,30,37,36,2
60,397,563,206,57,29,35,34,2
63,399,575,239,61,32,34,43,2
54,414,524,231,59,30,36,42,2
54,402,577,241,55,30,33,41,2
53,418,639,220,56,31,33,41,2
66,417,676,265,60,32,38,44,2
61,389,662,221,58,32,43,43,2
60,334,691,229,60,33,40,42,2
62,363,676,213,60,32,39,45,2
73,432,598,227,68,32,41,47,2
65,401,594,217,68,34,38,46,2
73,456,556,220,71,33,35,43,2
74,459,561,211,71,33,38,44,2
85,442,567,210,71,37,43,49,2
85,442,629,199,61,40,42,51,2
83,429,573,179,62,37,40,51,2
78,364,572,200,58,37,38,49,2
79,381,556,191,62,37,36,47,2
68,418,551,198,104,37,36,39,2
59,442,511,201,106,33,34,37,2
55,440,496,197,106,35,37,32,2
53,428,536,200,109,34,38,31,2
60,445,526,198,109,33,41,40,2
63,451,533,210,73,30,44,47,2
68,358,444,204,68,31,46,46,2
71,344,454,190,69,28,42,46,2
81,500,541,213,101,43,53,56,2
80,517,604,232,120,51,56,60,2
77,487,597,233,126,49,53,58,2
73,502,594,231,128,49,52,58,2
72,506,617,248,126,50,55,57,2
68,505,577,205,105,44,50,55,2
61,483,554,258,83,37,49,49,2
61,477,531,243,74,39,48,47,2
56,455,519,247,84,40,47,47,2
69,493,555,230,87,45,55,55,2
62,380,512,230,85,42,52,51,2
64,372,500,206,96,39,50,48,2
63,387,488,205,104,37,49,48,2
75,407,519,211,99,43,54,55,2
67,387,476,213,97,38,51,51,2
67,350,438,229,94,35,49,48,2
64,398,457,194,84,36,49,47,2
64,426,531,219,78,37,48,46,2
53,413,552,214,71,30,47,34,2
47,432,583,216,78,29,39,31,2
47,424,611,226,77,30,39,33,2
47,370,633,223,73,31,38,38,2
49,376,680,205,82,34,41,41,2
54,365,662,202,88,36,38,43,2
60,314,611,204,86,39,38,45,2
68,361,660,234,95,41,41,52,2
70,422,618,233,94,40,39,48,2
68,369,555,237,93,38,37,45,2
64,384,543,244,90,36,37,44,2
61,400,577,252,87,34,35,42,2
50,385,483,227,77,30,31,32,2
47,334,472,241,77,34,39,37,2
53,378,466,252,61,32,40,39,2
54,386,626,252,68,33,39,40,2
54,386,620,242,75,33,40,39,2
59,392,638,241,78,32,42,43,2
63,372,653,233,76,30,38,45,2
62,377,655,231,77,31,40,45,2
62,371,564,237,88,30,39,42,2
63,404,559,258,81,30,41,43,2
58,382,597,227,76,30,41,42,2
58,374,616,256,90,28,39,41,2
55,330,577,238,114,31,41,46,2
52,360,555,234,102,30,39,50,2
55,330,548,204,104,31,39,58,2
60,339,539,203,106,36,41,60,2
60,361,525,161,92,36,39,61,2
68,416,567,192,70,40,42,61,2
74,368,543,236,76,44,49,64,2
76,352,587,258,103,47,51,61,2
70,369,561,259,104,45,48,55,2
69,411,608,251,118,45,49,52,2
59,356,594,227,120,41,45,48,2
58,360,600,235,124,38,41,45,2
55,372,607,215,109,33,41,47,2
58,365,646,233,107,32,43,50,2
57,385,577,255,94,33,45,54,2
58,384,568,263,86,31,45,53,2
62,433,597,265,82,32,46,48,2
58,411,574,276,70,31,42,43,2
62,423,556,268,72,32,43,48,2
70,380,656,265,74,34,41,54,2
75,369,661,274,73,35,42,62,2
69,353,637,219,64,38,43,65,2
67,353,644,212,66,38,44,66,2
69,322,582,198,62,37,43,63,2
68,299,441,201,73,38,44,57,2
65,308,385,176,80,41,44,50,2
63,261,460,224,88,37,41,45,2
66,259,404,235,89,40,46,45,2
63,335,440,256,100,41,44,47,2
57,320,499,245,91,37,44,47,2
57,309,631,278,88,32,44,45,2
62,322,584,269,82,33,48,51,2
64,348,648,259,80,31,41,51,2
60,278,676,255,84,33,41,48,2
59,275,659,257,82,33,38,44,2
62,319,552,272,98,34,38,46,2
64,339,509,257,96,34,37,41,2
61,331,610,277,100,34,39,42,2
61,331,571,276,87,33,47,47,2
62,343,558,288,87,33,53,50,2
58,323,599,261,77,35,54,49,2
57,293,635,250,77,35,53,50,2
59,321,471,230,82,37,53,52,2
70,364,502,225,85,37,52,54,2
67,355,511,203,86,37,45,51,2
66,353,454,177,88,37,45,50,2
61,421,451,187,106,37,44,49,2
61,442,551,178,100,35,45,46,2
51,430,550,211,107,34,41,35,2
51,424,577,204,110,34,43,38,2
52,411,573,204,107,33,40,38,2
56,382,559,206,91,29,44,39,2
55,346,467,198,94,28,40,37,2
55,323,483,230,98,29,40,40,2
54,323,482,238,103,28,42,39,2
62,325,556,244,106,30,49,44,2
60,355,562,276,111,34,45,49,2
63,434,639,293,116,33,48,56,2
63,434,649,300,107,36,48,60,2
68,454,659,328,113,36,46,62,2
66,464,609,328,106,36,39,62,2
68,397,628,300,102,39,37,57,2
72,324,613,312,105,42,36,59,2
71,362,554,276,102,39,40,57,2
72,364,500,255,97,42,41,59,2
68,376,534,247,95,38,42,56,2
67,389,561,242,108,33,43,56,2
55,373,518,206,99,31,43,46,2
56,327,586,256,96,33,44,43,2
50,292,595,242,89,32,41,40,2
52,290,617,254,93,35,42,41,2
57,326,605,281,86,39,41,52,2
68,309,590,289,105,40,42,53,2
73,313,620,237,107,41,47,62,2
82,343,617,256,110,45,57,68,2
83,348,616,280,109,45,59,72,2
79,318,660,291,102,41,61,67,2
72,319,666,298,83,39,61,67,2
66,327,668,287,84,36,56,60,2
66,337,695,326,88,33,49,53,2
69,317,693,313,83,33,54,48,2
72,313,608,271,94,36,55,53,2
72,330,641,263,92,36,54,54,2
72,328,582,262,92,37,52,51,2
66,298,598,265,84,38,50,48,2
60,327,579,274,86,37,47,50,2
55,372,596,318,86,34,47,45,2
56,358,571,322,97,34,57,47,2
58,373,572,329,98,38,59,50,2
51,369,571,321,100,35,58,49,2
51,331,561,321,108,35,54,49,2
54,295,562,292,97,38,55,46,2
56,285,520,282,85,38,50,47,2
54,297,502,278,84,38,50,48,2
59,332,518,294,83,44,53,54,2
62,353,512,275,82,46,57,57,2
64,342,482,275,97,44,61,57,2
60,342,520,276,93,44,58,53,2
63,315,528,265,94,40,56,51,2
68,277,496,205,96,35,54,48,2
63,297,521,193,93,29,52,44,2
59,314,538,167,76,28,47,41,2
59,359,574,162,82,29,41,40,2
52,366,558,157,77,29,42,41,2
48,366,521,107,72,30,41,37,2
50,378,486,107,61,31,39,35,2
51,371,484,108,58,32,37,37,2
56,351,427,102,60,30,37,39,2
62,366,401,102,61,33,41,44,2
63,383,485,101,58,30,44,45,2
64,353,532,112,56,30,48,53,2
64,335,544,153,60,29,47,54,2
70,314,539,154,64,29,61,58,2
67,276,541,157,71,31,65,56,2
62,276,493,170,77,31,64,58,2
64,307,457,172,81,33,63,55,2
63,306,446,137,79,36,65,53,2
52,296,427,143,75,34,56,49,2
51,311,474,148,71,32,49,49,2
53,302,461,146,79,34,50,46,2
50,255,520,146,75,34,47,42,2
49,269,500,145,74,35,53,45,2
59,313,528,139,74,38,51,46,2
60,302,537,138,117,40,58,46,2
62,289,536,130,116,39,56,47,2
62,287,451,120,120,38,58,49,2
61,266,463,122,122,35,59,52,2
54,224,482,131,140,41,80,57,2
57,243,512,131,120,84,156,63,2
51,256,504,129,116,87,165,65,2
54,263,517,133,115,92,172,68,2
57,264,530,139,118,94,172,65,2
57,255,512,180,110,92,164,61,2
56,274,445,184,94,55,96,63,2
59,253,479,187,96,49,80,61,2
62,287,519,182,94,40,71,61,2
60,311,503,185,95,39,67,63,2
61,375,470,141,93,38,62,60,2
58,385,521,139,89,38,56,52,2
61,413,500,144,91,37,60,54,2
61,395,461,163,90,37,53,50,2
62,373,491,155,88,35,48,46,2
61,379,567,167,90,38,50,56,2
68,366,536,172,96,36,53,57,2
70,347,559,167,96,36,49,58,2
65,334,563,148,100,36,51,57,2
64,359,543,169,105,36,52,58,2
65,313,484,156,93,32,55,50,2
59,298,511,162,96,31,48,48,2
58,333,497,160,101,31,53,51,2
59,371,518,162,101,30,54,55,2
60,405,532,166,107,31,55,55,2
59,395,587,214,112,31,50,54,2
65,419,546,204,105,32,50,54,2
64,386,546,204,97,33,48,45,2
62,348,585,242,93,31,49,38,2
60,354,632,232,110,33,50,39,2
63,388,593,191,108,40,63,55,2
58,375,638,192,113,39,65,57,2
58,432,728,256,114,40,63,60,2
61,441,666,252,117,42,62,62,2
62,396,617,264,89,40,65,66,2
65,369,640,312,96,40,61,58,2
63,405,671,345,91,42,62,63,2
74,359,602,301,103,48,69,72,2
78,444,640,295,105,48,73,79,2
83,500,711,364,132,55,71,81,2
90,557,746,342,127,57,73,91,2
105,590,775,342,132,63,88,103,2
104,597,780,346,124,58,84,102,2
101,560,751,349,126,60,85,100,2
101,580,713,275,101,59,91,102,2
95,553,689,265,102,55,94,93,2
83,500,610,227,119,50,83,81,2
73,491,543,223,123,52,83,72,2
76,520,629,271,148,50,85,70,2
78,471,670,287,158,52,84,64,2
80,486,630,284,156,51,73,66,2
81,476,715,291,142,52,69,59,2
84,476,850,315,139,52,68,60,2
80,454,796,253,104,51,56,60,2
77,426,771,222,90,47,52,59,2
73,400,827,238,90,47,53,56,2
68,430,733,227,97,46,53,54,2
68,442,622,226,94,45,52,56,2
72,428,669,226,108,44,59,58,2
68,446,621,232,117,45,62,59,2
65,417,530,214,118,42,59,57,2
65,400,526,204,117,40,58,61,2
62,380,465,168,115,41,64,64,2
61,399,424,251,105,40,57,61,2
66,392,441,240,96,35,53,63,2
63,397,481,252,97,35,55,63,2
70,417,577,270,87,34,58,59,2
73,426,590,273,88,33,54,55,2
71,398,578,210,92,33,61,58,2
70,380,576,211,99,35,58,53,2
73,386,641,235,102,40,56,53,2
67,338,579,266,102,40,53,50,2
64,314,582,260,99,39,54,52,2
67,338,601,261,94,44,55,48,2
67,351,609,320,90,41,55,54,2
69,316,501,289,90,47,58,58,2
67,343,488,297,104,46,57,57,2
72,419,496,307,105,47,53,58,2
70,386,516,315,100,41,49,61,2
71,373,528,287,103,41,54,60,2
68,401,539,294,101,32,52,55,2
69,381,532,241,86,34,60,58,2
69,344,590,249,88,35,59,59,2
68,369,550,281,89,34,57,53,2
60,370,509,247,99,35,52,46,2
62,369,514,254,101,36,53,47,2
62,355,586,271,100,35,47,47,2
61,332,538,256,101,32,46,40,2
65,289,535,210,99,34,43,41,2
69,376,575,222,83,34,41,41,2
68,388,579,244,79,35,40,44,2
74,412,505,249,85,33,36,47,2
73,421,522,264,84,34,40,53,2
73,484,613,255,87,34,40,51,2
79,419,578,257,79,34,39,53,2
89,456,553,225,79,33,44,59,2
89,441,555,244,75,33,46,54,2
85,432,647,257,81,37,43,48,2
80,380,566,257,76,38,46,55,2
75,406,573,259,88,38,48,54,2
59,338,600,305,82,39,45,43,2
46,316,627,309,92,39,41,41,2
47,290,535,322,85,35,39,41,2
48,273,564,318,89,34,36,35,2
53,265,627,349,107,36,34,37,2
56,290,655,318,114,33,30,36,2
64,329,650,284,110,32,30,39,2
65,331,656,237,112,35,33,44,2
66,346,698,238,110,35,35,42,2
61,319,664,185,82,33,39,42,2
58,295,664,257,86,33,39,43,2
51,288,636,255,80,33,40,42,2
50,278,610,270,81,34,41,40,2
48,295,551,277,87,35,45,42,2
50,305,533,267,90,34,43,42,2
53,307,544,172,79,35,45,43,2
56,288,565,172,83,37,46,45,2
56,312,548,235,96,37,45,44,2
60,263,543,244,99,35,40,45,2
77,300,601,248,103,37,36,46,2
76,294,557,257,106,36,34,44,2
72,327,523,277,119,35,34,42,2
80,329,511,247,112,42,38,45,2
82,372,479,241,109,43,37,41,2
72,385,379,241,102,41,38,41,2
74,380,388,283,128,40,38,40,2
78,380,399,296,118,41,38,43,2
70,389,408,281,112,31,31,39,2
71,370,395,274,108,31,31,44,2
67,327,375,267,107,31,32,45,2
69,341,350,233,69,35,39,50,2
68,334,426,259,63,35,37,50,2
66,333,481,264,80,37,38,48,2
64,341,578,295,87,36,39,46,2
62,326,588,323,88,41,41,48,2
60,335,618,334,92,37,36,44,2
57,316,587,288,98,38,37,43,2
57,288,587,282,86,37,38,45,2
55,289,638,270,89,38,41,50,2
51,293,640,245,89,31,37,44,2
47,256,639,259,102,33,38,43,2
49,235,625,262,106,32,37,44,2
54,275,622,258,109,30,36,45,2
51,269,463,248,101,27,31,40,2
56,262,462,239,98,28,34,43,2
60,273,415,198,86,27,34,43,2
61,278,406,221,69,27,34,44,2
57,245,333,214,77,28,34,43,2
58,215,345,217,81,32,33,40,2
55,212,333,221,83,31,30,38,2
58,246,448,285,80,35,72,43,2
57,241,525,266,79,37,77,42,2
58,238,522,268,77,37,82,43,2
59,253,524,250,89,34,83,44,2
60,277,541,266,103,35,83,45,2
58,242,498,263,111,31,52,43,2
64,315,468,265,116,27,44,43,2
61,310,482,283,122,27,36,40,2
63,309,492,318,130,31,34,41,2
61,309,491,330,118,31,36,39,2
61,323,490,270,115,33,32,36,2
58,285,435,273,112,35,36,37,2
63,303,523,254,103,35,35,40,2
57,305,516,208,82,37,33,37,2
70,334,522,224,98,42,34,50,2
74,335,477,231,109,44,60,63,2
72,309,539,226,108,43,60,62,2
69,306,433,227,106,40,59,61,2
69,283,434,228,103,38,61,62,2
60,256,422,210,102,35,60,55,2
55,277,530,242,84,31,33,41,2
56,287,505,241,80,31,36,39,2
60,300,574,286,75,38,45,43,2
60,353,593,284,70,36,44,42,2
58,336,593,277,56,35,44,38,2
50,314,610,259,68,34,43,34,2
47,317,638,277,80,34,38,33,2
42,286,579,226,88,29,25,29,2
44,251,593,233,111,32,27,29,2
48,281,638,224,139,35,30,33,2
51,283,557,200,133,35,29,38,2
51,283,503,217,139,34,28,38,2
54,327,556,224,147,33,29,40,2
51,319,599,223,138,36,29,39,2
53,293,579,212,111,31,27,38,2
51,310,556,216,120,32,27,34,2
53,310,565,199,126,35,29,35,2
52,287,549,214,146,38,29,34,2
57,287,470,262,152,36,31,40,2
52,298,430,262,152,38,30,38,2
56,332,458,269,146,37,31,39,2
55,397,535,272,130,36,30,39,2
63,421,500,271,99,35,32,42,2
62,442,611,228,87,31,29,38,2
62,457,653,223,85,31,28,40,2
64,434,648,210,79,30,28,42,2
66,382,605,195,99,32,29,45,2
56,360,605,168,121,31,27,41,2
50,334,471,160,121,33,27,39,2
52,314,463,165,122,34,28,39,2
47,320,499,172,122,33,27,37,2
41,292,513,145,113,31,25,34,2
40,310,569,133,93,31,26,34,2
44,331,587,127,106,29,27,35,2
41,323,641,140,105,27,27,32,2
42,299,605,134,107,29,29,33,2
43,366,585,134,109,27,29,33,2
44,329,524,134,97,27,27,33,2
57,323,594,136,79,30,31,40,2
64,362,501,110,74,37,33,47,2
66,354,520,114,80,37,31,45,2
71,341,508,123,71,38,31,44,2
73,340,511,124,69,39,33,45,2
66,353,458,134,77,37,29,40,2
66,303,520,131,74,29,27,36,2
66,378,491,132,63,31,31,37,2
64,338,484,122,72,32,32,41,2
67,353,598,128,70,32,31,41,2
68,335,583,125,63,33,37,48,2
65,346,577,127,84,34,37,50,2
60,288,620,118,99,34,35,49,2
60,317,655,150,97,32,34,46,2
53,309,577,148,99,31,32,44,2
48,293,591,137,97,28,25,37,2
47,277,565,164,79,29,23,35,2
53,280,527,167,63,29,26,39,2
54,236,468,132,64,30,28,40,2
56,251,456,139,67,33,30,43,2
53,246,428,141,77,35,30,43,2
49,247,385,106,82,32,29,39,2
39,234,501,109,94,30,25,34,2
40,271,514,124,86,31,26,32,2
38,258,538,115,87,28,26,30,2
43,271,553,106,79,24,26,28,2
46,276,538,105,85,25,26,28,2
47,261,442,97,71,27,27,30,2
48,239,508,81,76,27,25,33,2
60,280,553,94,84,29,26,37,2
60,280,567,105,84,31,26,43,2
72,292,604,104,74,32,26,46,2
72,290,590,104,77,31,25,45,2
69,275,542,107,81,31,27,43,2
59,252,542,92,80,29,25,39,2
56,245,529,83,78,26,26,31,2
40,250,528,79,97,26,28,28,2
39,242,531,94,93,28,29,29,2
39,242,531,98,90,26,29,29,2
44,256,493,95,83,28,30,31,2
41,260,488,96,84,28,27,33,2
43,229,615,131,64,28,24,31,2
44,225,618,167,72,30,27,32,2
45,254,707,199,72,32,26,32,2
46,244,713,203,68,31,28,33,2
47,255,725,214,66,34,29,32,2
45,260,660,263,64,33,30,33,2
49,315,692,305,57,35,31,39,2
51,325,625,301,51,34,31,40,2
49,357,613,300,48,33,29,39,2
54,345,647,297,72,31,28,39,2
55,349,657,245,70,31,28,40,2
53,322,692,178,79,32,25,32,2
52,294,730,180,123,35,25,34,2
51,222,717,194,130,35,26,34,2
51,253,709,269,125,36,26,36,2
50,279,686,312,135,38,24,35,2
52,288,664,307,144,35,25,39,2
55,297,625,296,117,31,24,39,2
55,365,650,293,110,32,23,39,2
53,361,616,232,118,30,24,38,2
54,344,604,194,108,30,26,39,2
67,402,555,190,87,29,30,43,2
66,415,577,192,80,31,35,46,2
72,407,566,194,88,30,36,49,2
74,420,643,203,69,30,36,50,2
82,530,622,183,70,30,37,57,2
83,506,665,184,94,39,39,61,2
89,536,625,179,112,40,37,65,2
86,514,650,166,134,45,38,66,2
99,516,579,147,136,45,40,69,2
107,493,671,190,143,49,42,73,2
105,475,661,243,136,48,39,69,2
104,452,698,315,129,49,39,66,2
107,483,683,368,103,47,37,66,2
95,463,693,384,98,46,35,60,2
84,402,659,373,100,40,29,49,2
81,413,619,339,102,35,29,47,2
80,430,629,276,106,33,31,46,2
78,380,689,202,111,32,33,45,2
78,507,699,231,118,38,38,52,2
78,523,696,225,108,39,41,55,2
74,540,758,236,125,40,39,52,2
69,530,741,226,114,40,37,50,2
65,552,694,228,116,41,37,47,2
69,496,725,157,117,38,38,43,2
74,485,757,142,115,37,37,46,2
76,453,722,140,85,36,37,47,2
74,424,684,147,83,33,38,45,2
75,408,645,148,93,35,39,49,2
88,360,575,149,81,35,37,53,2
81,301,472,156,88,40,40,52,2
78,342,479,138,90,39,39,51,2
82,345,478,140,91,39,38,52,2
78,333,466,143,70,37,34,49,2
62,359,492,145,80,34,32,44,2
56,368,511,143,97,27,28,38,2
57,313,502,145,102,27,27,37,2
53,299,510,136,103,27,27,36,2
55,289,567,127,111,26,27,35,2
49,226,567,139,107,29,25,33,2
48,222,530,130,84,29,26,33,2
43,225,526,120,102,28,26,34,2
41,230,574,137,113,28,27,34,2
45,274,539,159,117,33,27,40,2
45,264,504,148,116,31,26,40,2
50,308,602,149,119,33,26,39,2
57,352,604,153,100,34,26,41,2
59,349,580,140,86,37,26,41,2
60,315,596,114,69,32,26,38,2
58,311,627,140,67,30,27,38,2
68,258,547,155,67,37,32,44,2
67,223,557,152,95,38,34,45,2
71,251,517,155,98,37,33,49,2
68,249,494,164,94,38,33,48,2
79,303,557,160,97,40,35,52,2
70,344,618,164,100,32,28,46,2
68,332,665,178,81,30,29,45,2
64,343,707,199,81,31,29,40,2
64,350,724,205,83,31,29,40,2
53,319,696,204,99,29,27,35,2
56,276,667,209,108,30,30,35,2
53,269,635,203,103,32,30,36,2
50,241,575,193,103,30,29,38,2
48,227,636,184,103,29,28,37,2
45,211,637,171,100,30,30,36,2
40,251,678,185,96,31,29,35,2
50,257,674,189,95,30,29,34,2
48,238,697,183,93,28,29,30,2
51,255,604,190,95,29,29,30,2
55,261,603,208,81,29,27,30,2
57,248,512,183,65,29,26,30,2
54,251,447,184,62,28,25,28,2
56,247,430,175,58,29,28,32,2
58,295,479,162,74,32,30,34,2
62,311,479,181,74,34,34,38,2
64,305,546,177,78,36,36,40,2
63,331,580,168,90,39,38,43,2
65,342,634,191,107,39,37,44,2
63,320,614,189,100,39,37,42,2
57,311,667,159,103,38,34,39,2
55,303,705,164,104,39,35,40,2
53,291,800,183,95,39,33,37,2
55,317,808,260,129,42,34,36,2
61,327,851,279,126,44,36,43,2
63,330,836,319,131,49,40,45,2
60,338,790,321,129,47,38,42,2
60,332,656,331,129,45,37,44,2
68,343,707,312,101,55,47,51,2
66,326,770,348,105,51,46,46,2
66,325,750,371,103,51,43,48,2
75,365,796,387,105,51,45,52,2
81,372,869,425,146,57,46,54,2
74,398,846,419,137,49,37,48,2
75,402,750,379,138,50,37,49,2
74,410,724,341,141,46,38,49,2
66,400,730,321,141,46,37,45,2
61,433,681,291,116,43,37,42,2
60,405,602,271,116,41,35,41,2
51,422,605,283,115,39,32,38,2
59,464,661,254,105,40,30,42,2
61,460,658,265,103,40,30,48,2
66,423,657,249,80,35,29,49,2
66,405,740,253,71,36,30,48,2
75,428,748,258,69,37,32,49,2
73,405,781,307,69,42,38,49,2
75,417,774,356,72,43,41,46,2
73,464,765,342,74,48,43,46,2
71,467,670,322,71,45,43,46,2
69,443,715,313,89,46,44,50,2
71,449,645,284,94,45,41,51,2
77,446,627,274,112,49,44,58,2
84,444,627,292,128,49,45,63,2
88,439,666,299,136,52,47,64,2
88,430,625,308,133,54,47,64,2
85,394,556,295,136,47,46,60,2
75,382,508,267,122,43,41,52,2
69,343,587,259,108,41,39,48,2
70,350,551,258,107,41,39,50,2
77,391,508,274,126,49,45,61,2
83,473,656,288,159,66,48,66,2
101,479,714,347,187,77,52,79,2
103,624,730,359,202,76,49,78,2
118,677,823,439,210,87,56,89,2
126,696,858,425,202,87,56,92,2
128,671,848,421,174,77,56,92,2
122,734,799,381,161,67,52,85,2
121,614,713,362,143,68,57,88,2
103,584,721,262,137,53,49,74,2
86,519,742,262,138,47,46,60,2
77,504,665,252,142,47,45,59,2
83,458,699,226,124,49,47,63,2
81,540,749,219,125,50,48,61,2
94,567,686,221,117,50,50,66,2
98,592,644,264,121,50,48,69,2
97,570,659,263,128,52,48,67,2
85,572,667,272,143,55,48,63,2
85,534,621,279,146,54,44,59,2
76,483,636,308,155,53,42,56,2
84,538,741,267,176,72,45,57,2
92,556,770,296,188,111,46,59,2
93,520,868,310,189,119,46,60,2
92,507,860,307,184,124,48,62,2
88,522,910,287,178,125,49,60,2
78,434,824,291,141,114,44,55,2
68,409,799,321,110,74,42,49,2
64,416,647,323,98,60,39,49,2
68,393,657,317,97,48,36,46,2
68,355,543,301,92,45,35,46,2
73,390,576,308,101,47,35,46,2
80,420,613,286,118,51,38,51,2
82,388,628,260,113,47,40,51,2
87,372,684,281,127,53,44,61,2
100,379,698,288,139,57,48,70,2
96,342,671,308,133,56,49,75,2
98,366,674,269,137,53,50,75,2
98,366,674,269,137,53,50,75,2
96,365,662,290,141,51,48,73,2
96,365,662,290,141,51,48,73,2
