1030,1049,784,1111,1063,1074,848,1033,2
883,936,679,1149,967,1051,741,875,2
761,763,566,1144,960,1076,685,770,2
673,679,512,1154,907,1083,616,697,2
616,599,411,1113,822,965,530,662,2
562,522,362,1133,798,930,470,636,2
607,531,375,1074,893,886,420,664,2
593,510,343,1051,882,796,322,657,2
588,482,306,989,863,681,240,657,2
585,477,300,892,837,586,207,635,2
599,488,271,763,819,492,178,620,2
569,459,217,638,674,349,181,587,2
571,471,210,531,573,268,175,573,2
563,464,190,408,507,233,172,559,2
562,458,181,325,467,179,165,554,2
556,447,174,267,433,151,163,555,2
552,447,174,244,395,126,159,557,2
540,439,170,212,374,108,158,544,2
546,446,177,207,366,99,153,550,2
542,443,171,193,350,81,154,548,2
544,441,173,196,362,82,154,547,2
541,446,167,194,350,77,148,535,2
543,440,173,194,359,85,153,535,2
549,435,164,190,356,82,155,540,2
542,433,162,188,358,84,152,537,2
550,453,164,200,364,81,160,541,2
545,444,168,195,360,80,161,537,2
552,446,169,196,358,78,159,548,2
545,450,184,194,348,80,159,537,2
550,450,183,191,360,82,162,542,2
540,443,180,180,351,81,157,536,2
544,446,189,185,361,85,153,545,2
542,448,183,190,354,87,154,546,2
533,443,160,185,356,87,145,541,2
541,455,172,209,353,93,155,544,2
539,449,173,220,350,122,150,545,2
539,457,155,306,351,132,154,543,2
534,477,161,371,377,163,152,530,2
541,470,167,394,369,192,176,555,2
536,475,197,450,352,282,185,555,2
541,504,230,539,382,363,185,549,2
520,555,257,765,508,462,421,604,2
493,612,337,1064,523,607,528,674,2
503,634,621,1153,701,725,544,646,2
540,735,658,1438,871,822,551,729,2
591,768,750,1609,879,866,594,776,2
639,751,801,1581,847,860,507,731,2
720,757,845,1510,925,869,456,703,2
698,834,696,1494,834,799,473,797,2
644,751,686,1359,682,713,481,739,2
575,748,626,1129,702,645,467,712,2
502,771,585,1020,691,598,454,740,2
384,720,504,821,604,458,427,759,2
418,649,527,735,572,413,402,690,2
419,652,560,438,575,339,428,689,2
402,614,526,445,550,306,420,719,2
478,597,584,564,548,286,415,703,2
512,610,617,604,515,254,407,675,2
510,596,602,612,533,280,439,684,2
559,598,574,625,524,273,404,693,2
579,621,580,635,517,263,399,674,2
517,617,589,566,488,264,390,709,2
467,618,558,536,479,246,390,696,2
409,621,540,534,466,215,357,731,2
312,656,534,479,460,213,359,732,2
244,663,561,414,480,207,369,730,2
195,665,483,353,472,213,356,706,2
150,662,522,339,483,232,366,713,2
118,675,526,302,484,225,350,679,2
93,657,524,302,489,247,364,671,2
64,655,519,302,478,251,348,675,2
57,639,526,297,492,262,366,663,2
48,654,496,291,497,264,350,679,2
46,652,492,330,479,258,353,673,2
41,645,508,326,498,271,363,669,2
37,647,483,329,479,268,361,664,2
43,660,492,320,482,271,349,678,2
59,667,484,306,467,255,342,679,2
145,660,485,229,493,307,362,671,2
306,677,467,203,472,315,345,694,2
466,675,490,223,473,357,339,695,2
629,690,482,316,455,370,336,725,2
731,678,472,343,452,375,327,710,2
795,690,490,375,445,342,305,722,2
791,688,477,398,427,314,284,719,2
772,690,457,487,426,258,276,715,2
694,686,429,505,413,233,253,683,2
631,675,435,516,426,234,278,670,2
576,653,416,529,416,247,272,658,2
557,629,396,529,417,265,286,635,2
511,591,356,518,396,273,282,624,2
486,539,342,482,416,272,281,596,2
482,511,310,471,418,266,259,596,2
471,486,269,485,410,241,251,565,2
486,472,285,497,479,219,257,558,2
482,453,289,567,520,239,272,545,2
474,433,294,745,534,243,273,539,2
471,421,285,824,583,248,263,540,2
473,441,295,925,609,273,291,557,2
470,425,340,926,598,278,275,542,2
484,424,345,1041,601,249,254,530,2
500,429,328,1028,609,247,241,538,2
493,422,333,1078,559,236,242,507,2
516,438,345,1016,564,211,196,505,2
498,433,271,1042,539,199,175,487,2
497,449,260,876,535,185,159,474,2
494,458,285,772,522,152,156,452,2
496,462,292,650,527,144,144,455,2
482,429,264,732,518,146,135,435,2
490,424,281,766,511,148,127,441,2
492,446,323,872,500,161,125,445,2
488,445,310,910,498,157,110,442,2
493,450,293,1006,500,161,101,440,2
486,446,292,948,478,149,100,433,2
496,455,281,911,508,147,89,445,2
489,423,228,779,494,135,77,439,2
500,433,240,708,501,151,82,457,2
501,439,245,518,514,145,80,468,2
503,446,246,414,518,149,73,479,2
516,469,263,322,506,159,70,484,2
515,475,271,368,524,169,73,494,2
519,477,271,361,537,172,63,499,2
508,480,272,319,509,172,63,488,2
517,491,284,317,520,176,70,503,2
501,483,263,321,520,161,72,500,2
512,486,248,259,529,161,71,507,2
510,483,245,245,505,151,79,500,2
509,480,245,290,514,149,78,501,2
509,475,227,425,511,154,74,489,2
513,469,231,474,509,159,74,488,2
513,471,248,478,507,154,70,484,2
506,466,238,466,505,145,71,471,2
519,470,251,448,516,160,68,480,2
514,484,256,325,516,151,66,476,2
513,486,260,253,525,155,64,477,2
506,480,254,250,510,155,70,465,2
504,479,250,358,512,165,59,473,2
495,474,236,397,521,155,60,467,2
489,442,227,441,511,152,61,463,2
491,428,227,460,515,149,63,469,2
471,407,218,516,511,145,80,461,2
470,396,226,471,527,153,108,468,2
459,384,215,445,489,148,154,484,2
453,374,209,430,496,172,212,502,2
443,388,209,415,481,201,261,510,2
459,399,274,339,480,234,290,526,2
469,417,281,405,448,272,420,549,2
467,420,334,481,462,547,450,529,2
501,471,419,870,530,666,471,547,2
515,502,537,1090,536,760,479,538,2
576,517,593,1283,556,901,524,550,2
594,513,650,1460,565,927,496,541,2
617,528,704,1586,591,811,562,587,2
631,587,694,1431,522,748,614,601,2
643,613,757,1372,504,773,660,633,2
595,616,753,1323,476,754,642,664,2
586,632,821,1293,475,958,642,707,2
625,705,871,1236,424,1091,636,709,2
631,688,873,1307,438,1098,596,711,2
650,687,847,1414,476,1031,586,729,2
675,755,812,1472,472,950,594,697,2
681,764,719,1567,489,748,578,696,2
694,731,642,1620,561,529,541,681,2
694,723,690,1699,560,472,541,652,2
706,740,654,1612,541,450,526,623,2
697,683,725,1651,556,420,521,652,2
724,696,769,1602,561,421,544,611,2
689,721,742,1471,497,464,521,599,2
687,720,694,1372,504,456,528,626,2
672,704,645,1281,495,437,516,620,2
681,705,594,1026,510,402,531,626,2
685,736,539,790,493,297,505,624,2
682,699,554,928,513,191,519,635,2
692,699,548,1059,508,177,511,631,2
685,696,530,1263,510,169,513,651,2
710,727,544,1433,484,164,515,640,2
687,704,542,1417,482,157,505,642,2
698,707,513,1415,486,148,507,665,2
701,721,526,1269,494,146,509,666,2
713,720,544,1091,511,138,518,673,2
698,720,498,849,507,146,500,661,2
690,699,514,816,523,132,514,674,2
707,719,517,699,505,123,509,670,2
700,706,484,864,523,132,504,682,2
706,727,495,922,509,138,498,673,2
689,707,519,1034,517,141,502,676,2
717,724,497,1199,525,169,501,704,2
703,723,489,1230,522,176,488,698,2
707,730,537,1104,508,200,498,705,2
689,705,534,1095,495,246,481,697,2
697,706,524,1037,517,327,480,717,2
681,715,506,925,482,361,453,709,2
661,692,539,859,495,367,453,702,2
654,693,534,862,472,356,414,712,2
639,675,527,793,484,327,397,719,2
622,666,506,720,456,239,366,712,2
592,627,527,613,468,161,347,676,2
589,614,517,579,467,141,328,676,2
560,570,496,516,478,126,327,623,2
548,551,486,516,533,118,315,608,2
545,527,487,525,534,146,298,580,2
536,499,468,475,556,167,285,570,2
521,480,435,435,534,205,266,548,2
496,450,399,467,542,242,255,553,2
479,425,357,430,487,266,276,529,2
449,387,328,473,479,352,280,503,2
437,372,306,444,476,374,307,493,2
428,347,287,487,493,420,322,472,2
431,326,301,487,511,470,299,444,2
427,304,304,472,493,501,311,419,2
438,281,316,433,526,521,292,409,2
445,295,297,440,516,605,299,397,2
465,340,299,407,523,605,279,390,2
500,348,275,389,513,601,295,413,2
519,351,249,385,537,619,241,409,2
530,379,230,396,522,565,250,421,2
539,367,236,400,509,457,220,424,2
541,326,220,418,521,419,223,450,2
522,339,213,403,497,357,195,430,2
525,365,220,437,507,257,193,437,2
523,358,213,418,499,236,174,436,2
519,362,207,436,504,233,151,444,2
519,386,222,423,491,215,137,436,2
533,416,240,436,508,205,146,476,2
534,423,235,498,494,202,145,532,2
547,435,259,568,495,187,154,577,2
549,456,278,565,506,196,155,635,2
566,456,281,585,515,183,155,700,2
579,470,309,612,531,187,160,759,2
590,485,307,562,527,191,160,766,2
584,517,339,525,553,202,162,777,2
600,515,333,529,554,191,158,758,2
589,522,330,527,551,191,158,758,2
591,539,295,521,539,185,154,709,2
571,523,321,513,547,189,154,692,2
576,499,274,488,538,189,147,647,2
569,499,264,482,523,176,143,630,2
566,508,253,487,533,168,146,567,2
554,477,258,446,526,163,136,533,2
561,480,258,460,528,155,127,480,2
568,488,238,471,508,137,121,471,2
555,481,243,469,520,136,118,444,2
565,474,247,453,515,146,106,424,2
555,452,229,461,514,138,98,398,2
567,447,186,451,520,129,98,395,2
549,428,186,433,517,124,100,395,2
559,434,183,447,519,131,107,375,2
559,412,169,433,508,120,106,376,2
564,418,197,459,518,125,112,366,2
561,417,194,448,501,128,110,374,2
555,414,190,461,515,128,110,355,2
564,412,176,457,525,121,104,357,2
556,409,180,465,529,119,104,350,2
559,411,153,459,527,115,98,352,2
546,398,163,457,528,109,101,348,2
559,396,174,457,537,113,104,345,2
554,385,173,443,518,107,100,348,2
560,378,172,454,527,109,102,337,2
555,364,170,438,507,103,100,356,2
559,361,165,450,514,114,100,344,2
570,361,176,448,506,111,92,344,2
561,354,180,453,507,120,94,354,2
566,361,183,478,509,129,91,361,2
553,349,183,482,507,130,94,368,2
564,345,188,486,523,139,87,398,2
553,345,168,465,509,164,86,528,2
560,356,178,499,527,180,90,557,2
555,360,165,463,510,210,88,599,2
566,366,172,491,531,232,88,631,2
560,363,161,491,524,251,99,651,2
543,353,169,496,526,241,113,621,2
550,337,159,473,522,225,115,614,2
531,320,158,475,529,192,118,592,2
533,310,142,459,528,164,118,579,2
527,304,137,445,513,132,112,563,2
539,310,133,475,529,134,111,525,2
527,311,119,469,516,133,110,519,2
533,310,118,468,514,136,122,537,2
526,314,123,448,505,137,122,527,2
521,315,130,449,508,129,128,532,2
528,312,119,433,507,166,124,526,2
534,306,128,417,503,165,124,532,2
555,311,125,440,519,158,114,527,2
556,317,123,433,510,158,115,522,2
568,333,122,435,520,177,109,536,2
554,330,133,412,492,190,109,525,2
541,340,136,423,495,226,108,532,2
542,382,202,439,486,278,98,546,2
554,402,212,490,515,348,100,543,2
549,394,211,514,539,393,102,525,2
539,391,222,530,546,460,102,550,2
536,400,256,536,569,584,170,554,2
509,342,250,525,575,608,198,514,2
486,307,297,497,555,617,213,535,2
469,300,347,470,539,607,212,542,2
482,309,379,471,550,560,249,531,2
488,286,406,475,556,431,292,516,2
491,300,412,454,543,373,292,540,2
497,311,431,451,568,306,298,533,2
492,313,421,459,552,265,298,529,2
493,311,399,453,568,234,264,523,2
486,313,372,436,564,204,172,527,2
494,324,365,442,565,194,148,530,2
483,324,307,426,547,179,112,521,2
498,335,283,420,561,166,113,524,2
492,341,298,421,543,150,116,515,2
505,356,279,449,528,155,108,524,2
496,359,294,434,556,146,108,507,2
498,357,288,444,548,146,106,510,2
494,350,270,448,544,154,102,514,2
487,345,227,434,546,156,100,518,2
495,349,214,434,548,156,96,516,2
486,345,163,433,533,154,92,514,2
484,344,149,430,539,152,84,513,2
478,349,151,415,525,230,88,507,2
490,348,167,427,526,232,90,519,2
480,348,173,404,534,233,94,506,2
491,353,156,407,530,245,92,527,2
496,358,153,415,529,244,93,535,2
494,355,144,417,536,167,94,532,2
491,358,121,422,546,160,92,528,2
484,353,99,421,532,150,90,537,2
490,360,81,445,536,129,91,532,2
483,359,86,429,531,120,95,518,2
498,362,95,462,538,195,107,528,2
494,362,94,455,524,235,139,519,2
498,361,90,460,523,264,168,510,2
488,356,91,436,512,297,198,486,2
487,349,88,441,512,324,217,483,2
475,350,92,415,511,335,217,469,2
470,348,96,411,511,351,201,458,2
479,358,99,444,524,386,197,469,2
474,353,117,452,521,381,182,468,2
478,366,129,469,526,384,175,481,2
482,371,134,459,524,353,180,485,2
495,379,150,482,532,316,182,510,2
492,392,156,465,529,245,181,509,2
504,403,160,469,540,210,180,532,2
514,405,167,455,540,153,172,538,2
507,402,176,452,535,114,163,534,2
511,414,181,441,544,92,171,535,2
516,405,178,459,539,81,159,533,2
515,398,167,464,531,85,152,529,2
511,399,193,457,533,88,151,521,2
523,402,189,483,539,95,157,532,2
522,392,176,480,527,91,149,525,2
519,384,199,453,539,88,151,533,2
520,384,210,435,542,81,142,521,2
511,371,183,435,534,74,139,517,2
506,366,176,428,532,63,135,504,2
496,358,171,417,533,57,127,494,2
497,353,153,434,532,48,128,487,2
485,345,135,424,520,49,130,478,2
487,347,122,436,520,50,127,482,2
487,338,125,417,517,56,123,476,2
485,337,132,422,517,57,129,486,2
477,342,123,400,500,61,123,480,2
476,346,129,409,503,58,123,484,2
481,343,128,406,515,59,119,486,2
471,344,116,406,505,55,114,477,2
481,349,110,424,515,54,113,479,2
477,336,110,417,508,49,104,470,2
482,333,99,421,511,45,101,475,2
474,337,106,414,498,41,105,463,2
475,343,113,423,510,38,109,475,2
468,341,116,409,496,35,106,465,2
470,352,112,415,504,39,103,466,2
471,354,109,418,506,42,98,459,2
465,351,108,415,501,44,98,461,2
468,351,117,415,499,45,95,464,2
465,352,117,411,501,46,93,459,2
465,351,124,417,509,44,90,474,2
455,351,129,400,500,45,95,467,2
459,353,130,407,508,41,96,472,2
455,348,118,396,502,43,93,461,2
453,346,117,394,497,42,93,469,2
454,349,113,380,487,46,96,455,2
452,347,117,385,489,45,94,457,2
451,345,108,388,493,45,93,454,2
447,342,110,388,485,45,92,451,2
460,349,113,409,496,45,101,458,2
447,343,114,405,491,43,98,450,2
452,343,111,410,493,41,97,454,2
455,341,116,396,483,41,92,450,2
457,346,115,406,490,40,92,455,2
451,340,111,395,483,45,84,442,2
456,342,103,402,494,44,89,452,2
458,338,99,401,493,44,88,456,2
448,339,100,402,491,42,92,450,2
454,337,100,401,491,43,92,453,2
444,336,102,396,483,37,98,454,2
447,337,105,400,481,39,92,461,2
444,338,109,392,478,38,90,451,2
450,342,111,401,485,43,91,464,2
444,343,110,400,486,43,92,461,2
