63,416,692,235,180,47,47,46,2
68,464,715,268,224,52,50,49,2
67,566,680,273,219,56,48,51,2
77,605,615,292,198,60,53,52,2
82,668,636,249,198,60,52,55,2
81,698,601,257,233,75,59,59,2
77,659,636,236,216,74,59,56,2
80,600,632,296,208,72,61,58,2
69,618,731,268,221,70,61,58,2
59,550,768,279,242,73,60,54,2
59,509,753,300,217,57,52,53,2
62,526,732,321,214,65,53,52,2
53,570,791,291,204,69,49,44,2
61,512,714,329,192,68,47,45,2
69,569,648,331,168,62,50,49,2
71,601,670,313,161,68,57,50,2
75,587,676,316,146,59,57,53,2
76,508,622,304,197,54,59,55,2
70,488,663,267,199,55,59,51,2
63,438,704,252,194,59,55,52,2
66,417,705,256,200,54,53,50,2
58,462,746,289,218,65,50,49,2
62,450,777,276,183,81,50,48,2
65,463,769,270,179,84,50,55,2
74,424,734,281,179,81,49,57,2
69,427,803,316,169,85,47,56,2
77,444,787,259,150,77,47,58,2
77,498,760,267,156,58,48,58,2
74,477,729,269,171,56,44,52,2
70,540,799,287,187,58,45,49,2
71,505,714,225,208,55,54,51,2
70,484,741,249,212,55,54,53,2
69,458,826,243,203,53,52,51,2
89,532,866,264,196,55,56,57,2
131,581,886,296,188,70,72,88,2
162,689,879,363,167,73,76,107,2
171,830,834,387,143,71,78,109,2
177,848,820,406,140,73,83,113,2
188,871,838,395,146,75,89,124,2
173,799,820,359,158,61,78,109,2
160,797,868,321,160,56,73,98,2
157,658,838,352,186,55,70,102,2
162,671,846,350,189,57,73,105,2
148,656,795,391,200,59,71,101,2
137,690,866,400,231,68,72,96,2
127,674,853,426,230,67,72,92,2
119,679,870,373,247,68,74,82,2
128,702,867,368,252,66,67,79,2
120,652,869,320,237,59,59,68,2
120,717,833,330,230,65,58,68,2
121,725,854,277,236,65,53,70,2
123,743,833,290,214,72,50,75,2
103,703,769,270,207,77,52,71,2
110,773,771,282,280,79,52,72,2
113,759,721,258,271,71,54,70,2
110,719,655,259,266,71,54,73,2
118,733,783,262,258,69,56,76,2
124,760,755,300,258,74,56,75,2
126,721,739,283,213,73,60,80,2
138,660,738,285,197,69,61,86,2
143,706,765,300,201,81,58,82,2
142,684,669,294,199,88,61,85,2
146,707,739,253,214,88,61,91,2
140,713,756,301,205,89,62,85,2
125,699,727,295,190,89,57,76,2
114,670,728,264,196,79,59,73,2
104,662,747,248,189,66,58,68,2
93,647,741,262,165,54,55,62,2
94,620,732,244,222,58,52,62,2
97,691,797,275,231,57,60,71,2
104,737,815,312,274,69,65,76,2
116,720,871,309,281,96,63,74,2
108,698,887,312,311,96,62,71,2
116,689,896,314,262,93,66,80,2
111,690,821,302,307,97,59,73,2
110,654,771,277,271,90,54,75,2
102,662,667,290,268,62,58,74,2
108,648,716,306,249,69,60,77,2
99,709,697,287,237,71,57,71,2
106,664,734,266,183,92,61,72,2
94,595,767,261,183,94,63,66,2
98,610,874,299,188,98,58,66,2
91,600,780,279,190,104,59,62,2
95,537,789,333,239,106,58,61,2
86,507,783,342,232,82,59,64,2
87,585,833,347,231,78,55,63,2
82,539,714,306,238,75,59,67,2
89,538,751,316,258,69,58,68,2
91,512,765,251,216,64,57,66,2
95,514,703,256,257,66,54,64,2
98,441,683,270,252,95,54,65,2
95,470,695,268,243,95,48,61,2
88,534,680,253,212,94,52,60,2
80,537,750,276,213,93,49,62,2
84,521,829,318,179,96,51,65,2
80,565,823,301,190,68,51,63,2
83,616,824,299,186,67,65,68,2
83,535,869,315,184,66,63,66,2
81,549,879,298,182,66,68,66,2
75,611,895,281,177,60,68,60,2
77,550,861,279,163,58,72,62,2
70,492,852,282,165,91,71,59,2
70,502,814,254,155,86,71,60,2
77,530,699,246,187,92,72,64,2
77,493,605,279,241,95,69,65,2
76,520,643,310,274,98,64,67,2
77,505,711,332,276,73,55,64,2
82,547,706,328,284,71,51,62,2
80,505,698,327,284,66,44,61,2
85,476,724,310,235,67,45,66,2
85,493,667,289,198,62,54,62,2
81,543,616,265,227,61,52,57,2
77,518,753,279,226,61,52,58,2
80,530,806,289,210,92,51,55,2
78,565,779,242,197,90,54,48,2
81,608,854,285,189,89,45,46,2
83,553,882,306,196,88,45,48,2
82,586,778,300,206,91,45,44,2
74,588,737,291,210,65,50,46,2
73,640,806,314,221,65,44,46,2
78,627,753,293,250,76,46,53,2
74,689,700,282,221,73,50,53,2
77,669,775,313,209,72,52,59,2
83,693,884,335,201,65,51,60,2
81,627,853,315,195,63,54,62,2
71,673,929,308,176,63,57,55,2
81,627,926,293,168,67,56,60,2
90,639,855,294,177,70,60,75,2
91,647,766,298,194,78,64,78,2
95,704,768,288,190,78,61,78,2
107,650,667,284,184,74,57,84,2
104,664,672,276,183,69,56,84,2
95,703,637,245,166,69,53,70,2
89,656,685,242,143,64,49,69,2
83,586,653,248,139,62,50,71,2
67,585,643,250,196,56,52,65,2
65,581,623,251,216,60,50,62,2
81,515,682,244,220,60,52,71,2
90,545,715,250,241,63,50,72,2
99,570,698,262,261,68,53,70,2
103,526,730,250,241,94,48,72,2
107,522,803,247,230,93,54,78,2
106,517,854,288,235,93,52,76,2
118,510,801,264,217,92,57,82,2
128,596,850,253,219,94,61,86,2
141,622,825,270,191,71,62,90,2
138,625,773,274,181,68,57,83,2
134,608,709,231,174,69,58,80,2
122,656,651,228,185,67,54,69,2
118,699,658,224,167,61,55,75,2
101,688,631,180,167,53,56,68,2
103,684,679,202,181,86,61,72,2
110,761,656,200,178,93,58,73,2
108,708,687,191,169,99,55,76,2
102,645,625,214,193,101,50,66,2
112,674,663,237,201,117,49,72,2
110,678,631,235,204,121,49,67,2
107,610,631,297,222,115,50,66,2
107,656,675,302,226,110,53,65,2
103,620,716,291,206,114,57,70,2
96,556,734,271,198,102,58,70,2
108,568,714,266,188,78,66,79,2
103,548,705,200,173,76,64,78,2
103,492,645,247,151,73,64,82,2
104,448,609,249,151,63,67,78,2
100,489,567,251,140,57,64,75,2
90,520,619,269,219,45,52,66,2
102,629,604,273,217,43,56,68,2
96,662,601,256,232,54,54,63,2
94,781,650,261,238,54,47,60,2
95,826,636,282,267,56,46,64,2
130,827,607,287,216,65,62,87,2
152,852,745,299,219,106,75,103,2
176,892,796,328,263,110,80,112,2
194,872,788,323,270,116,87,127,2
200,887,858,327,265,126,91,129,2
185,894,892,301,274,123,81,119,2
183,917,845,303,276,94,75,118,2
193,933,856,280,224,96,76,127,2
181,918,889,326,234,98,71,117,2
197,915,926,344,270,113,73,127,2
199,898,907,361,259,116,77,131,2
185,880,906,367,261,117,71,122,2
190,874,870,362,267,114,72,117,2
186,842,831,321,249,113,71,116,2
172,816,833,322,194,89,66,103,2
176,814,806,345,236,97,65,109,2
186,774,788,384,238,102,70,112,2
155,671,828,368,264,115,75,104,2
154,718,823,364,256,119,77,104,2
163,723,758,374,298,133,81,114,2
163,708,826,334,267,126,82,105,2
153,685,778,283,282,124,86,109,2
148,714,830,350,266,124,80,109,2
161,685,862,362,274,147,85,113,2
161,691,842,350,274,147,83,111,2
153,742,799,355,339,154,82,109,2
155,761,814,358,344,165,79,109,2
178,812,782,309,402,213,87,117,2
171,791,800,329,421,201,86,114,2
179,801,813,327,399,198,91,116,2
187,819,888,361,373,197,90,116,2
181,788,871,360,383,198,87,108,2
159,751,837,366,349,152,86,95,2
161,747,775,398,342,160,102,110,2
135,744,740,383,342,167,98,98,2
122,659,643,361,336,176,99,94,2
139,731,685,359,316,174,107,105,2
145,787,677,356,326,169,102,105,2
139,854,719,330,328,175,84,86,2
144,817,742,328,331,176,86,90,2
159,871,769,319,322,170,89,100,2
156,831,740,315,329,164,87,95,2
158,783,686,304,283,163,83,103,2
160,710,715,290,277,145,83,105,2
162,790,763,307,278,130,82,108,2
158,754,752,308,256,121,79,104,2
150,787,792,298,232,114,69,100,2
157,865,880,296,236,101,70,94,2
160,887,853,275,226,119,68,94,2
155,839,817,262,244,115,67,89,2
143,882,840,275,246,126,64,82,2
149,858,824,281,253,131,62,85,2
143,850,806,272,257,137,58,86,2
136,855,766,266,299,123,57,82,2
137,870,747,250,323,136,64,87,2
146,846,726,266,319,133,68,92,2
141,833,761,256,366,133,71,88,2
128,767,697,260,370,155,75,84,2
132,730,717,269,335,171,73,83,2
121,684,695,258,289,156,66,75,2
109,644,678,284,298,160,68,74,2
104,640,603,289,245,160,69,73,2
102,669,700,277,225,138,68,72,2
99,664,720,276,213,119,68,74,2
106,722,772,281,238,131,68,77,2
104,723,747,210,234,117,60,70,2
95,717,761,248,217,118,54,66,2
107,652,688,267,229,111,56,72,2
120,670,683,259,243,111,56,77,2
117,648,638,258,222,115,57,74,2
119,656,634,285,273,128,60,81,2
118,612,645,238,278,131,60,83,2
114,627,717,265,271,145,56,78,2
100,607,730,258,314,140,55,72,2
110,598,727,269,333,131,52,75,2
115,566,712,235,304,124,57,76,2
132,707,688,253,310,119,72,87,2
128,692,606,250,308,104,78,90,2
129,690,533,262,328,101,77,91,2
120,660,534,260,308,104,85,88,2
113,714,584,288,294,95,80,84,2
90,588,615,299,289,90,66,74,2
107,618,608,280,311,91,65,85,2
110,632,615,282,240,108,69,91,2
131,641,631,296,259,109,66,98,2
129,556,600,276,247,114,67,96,2
136,708,576,263,271,116,69,96,2
125,740,589,248,252,113,65,82,2
114,735,628,241,256,94,62,73,2
92,722,619,250,266,87,53,63,2
95,793,609,246,269,77,52,61,2
86,666,670,230,276,75,49,56,2
88,593,726,221,275,77,46,59,2
89,563,716,205,273,79,48,61,2
90,555,732,176,257,107,48,62,2
86,535,747,236,292,111,48,62,2
86,590,756,237,253,115,50,63,2
89,618,773,240,251,108,57,71,2
90,612,750,246,241,109,59,70,2
84,601,754,237,259,74,63,74,2
95,632,797,180,243,112,66,84,2
97,537,716,239,272,112,66,88,2
99,471,639,252,267,129,66,92,2
124,545,693,278,349,132,69,107,2
128,543,680,295,338,140,70,110,2
118,426,610,301,323,113,72,103,2
127,489,642,301,341,118,77,110,2
115,530,651,292,367,104,73,101,2
83,429,611,291,282,112,64,81,2
82,507,578,285,262,106,62,76,2
89,514,584,298,298,101,57,79,2
71,480,588,286,266,93,47,59,2
78,470,556,290,226,84,47,56,2
86,498,522,294,269,84,56,60,2
78,415,527,282,281,83,53,54,2
79,412,590,265,244,90,52,50,2
92,461,563,257,247,99,61,62,2
93,487,614,256,296,109,62,63,2
99,518,615,222,267,136,59,67,2
104,593,657,221,278,135,64,75,2
100,612,699,218,272,131,62,75,2
87,569,687,229,258,122,55,67,2
86,568,707,232,235,115,58,74,2
78,529,739,248,245,89,55,71,2
72,525,695,248,226,87,53,63,2
71,493,617,247,230,96,55,61,2
70,483,674,218,239,99,52,63,2
65,416,656,223,252,103,47,53,2
68,445,699,217,253,88,51,59,2
65,377,705,213,248,87,48,55,2
65,376,683,227,256,77,48,57,2
70,433,651,219,259,82,55,61,2
77,481,605,251,216,91,58,63,2
69,438,531,251,198,87,59,58,2
68,402,553,252,190,88,57,58,2
76,511,580,251,207,100,62,58,2
73,493,573,254,244,98,56,51,2
64,455,567,233,278,80,57,53,2
63,503,598,221,316,107,52,46,2
61,535,587,223,343,115,58,46,2
60,450,566,209,326,105,49,44,2
59,453,636,203,283,102,54,45,2
57,447,603,219,284,106,58,38,2
66,403,573,221,262,92,64,42,2
69,405,575,237,256,86,58,44,2
61,439,593,243,284,105,60,46,2
60,487,519,263,308,114,58,49,2
59,486,582,221,289,117,57,50,2
54,545,562,239,267,104,53,51,2
66,544,557,227,251,100,55,58,2
73,551,537,222,235,83,56,57,2
79,508,586,246,231,113,61,62,2
80,524,540,274,278,113,55,60,2
78,482,537,263,284,115,51,60,2
70,450,588,259,288,116,47,56,2
67,422,595,279,273,114,47,56,2
65,385,529,246,262,94,39,52,2
72,479,592,228,262,104,39,55,2
73,518,619,230,255,107,45,59,2
78,545,620,237,258,113,50,55,2
88,568,617,259,282,114,50,59,2
91,590,613,267,275,103,54,62,2
83,551,565,254,226,101,54,62,2
82,500,591,265,253,102,49,56,2
80,493,590,268,246,101,48,61,2
65,434,580,277,244,101,50,57,2
56,456,590,268,243,96,44,52,2
60,408,589,270,242,79,53,57,2
60,455,590,263,220,108,59,63,2
55,448,564,266,218,113,58,64,2
67,510,578,266,194,112,56,67,2
65,483,623,267,193,120,58,66,2
71,539,711,311,189,140,50,63,2
76,542,698,308,230,117,44,60,2
79,541,700,326,228,112,45,57,2
72,533,692,277,227,111,50,54,2
78,600,654,279,234,126,50,60,2
71,594,593,239,227,106,49,56,2
63,558,555,229,184,103,52,53,2
59,553,563,216,176,101,52,54,2
53,543,585,263,226,108,53,53,2
65,462,685,262,219,78,55,57,2
70,400,702,270,244,76,56,62,2
87,448,808,285,236,89,57,67,2
95,490,791,274,236,93,59,72,2
106,555,785,264,184,92,63,80,2
112,700,737,252,183,93,62,80,2
117,776,718,236,139,91,63,78,2
116,792,688,233,161,77,65,83,2
118,814,716,300,174,119,67,82,2
130,818,802,294,192,125,60,89,2
124,772,785,317,189,123,68,89,2
128,812,851,335,213,131,76,95,2
143,867,872,370,245,136,76,104,2
150,860,919,362,270,106,87,115,2
155,922,886,368,267,96,98,114,2
172,961,948,419,290,106,102,124,2
174,952,927,421,298,101,101,123,2
192,1007,937,396,265,97,102,124,2
203,1033,934,373,296,138,104,129,2
208,1062,921,357,330,150,104,129,2
224,1038,890,363,329,161,118,137,2
244,1035,904,366,321,175,119,147,2
228,998,871,371,320,187,119,141,2
225,1032,923,382,290,165,117,145,2
220,962,981,399,245,157,114,148,2
198,966,973,324,231,141,92,138,2
174,941,899,316,217,122,87,131,2
230,961,872,370,226,116,97,156,2
223,899,765,342,177,99,91,144,2
215,909,677,342,166,87,86,135,2
234,907,717,362,152,90,94,145,2
232,866,785,364,153,95,105,150,2
177,777,787,299,147,78,98,130,2
178,786,800,315,227,82,102,130,2
185,719,813,351,283,126,116,145,2
182,680,775,373,308,146,115,142,2
204,746,785,375,317,151,111,146,2
203,714,811,382,359,161,111,149,2
202,694,776,377,337,165,109,149,2
203,717,810,370,316,147,96,137,2
188,729,867,357,302,122,87,124,2
189,728,806,350,308,111,92,125,2
183,751,780,346,265,99,89,115,2
178,740,834,341,261,90,87,118,2
166,681,810,293,245,142,91,120,2
151,657,742,251,235,154,98,124,2
111,595,749,239,298,166,92,108,2
109,595,689,249,308,177,92,108,2
103,601,702,250,312,215,88,98,2
114,676,669,292,311,181,89,97,2
109,710,655,316,370,189,85,90,2
116,678,709,322,323,194,80,91,2
113,707,726,308,312,184,78,88,2
114,694,677,296,319,203,84,90,2
121,670,632,270,327,263,90,103,2
125,676,690,282,303,314,90,105,2
119,738,662,280,293,314,89,104,2
121,714,779,272,302,351,99,113,2
132,803,787,281,304,325,98,118,2
113,769,834,306,304,281,84,102,2
108,838,889,270,278,215,86,99,2
111,807,902,262,279,206,85,97,2
120,805,868,321,273,141,74,86,2
127,750,880,399,278,153,80,83,2
168,869,991,480,294,160,101,105,2
198,766,968,520,288,165,113,123,2
208,770,1072,541,301,176,119,130,2
211,777,1132,564,293,178,120,134,2
231,812,1146,555,305,175,124,143,2
225,723,1082,490,373,184,121,144,2
205,708,1077,458,372,184,108,127,2
204,743,994,447,402,180,108,125,2
203,684,915,405,436,184,112,130,2
177,668,906,341,404,191,100,117,2
179,691,854,330,350,178,87,107,2
179,762,823,343,361,178,90,112,2
192,787,815,379,321,187,95,118,2
194,875,787,376,298,187,92,116,2
197,862,808,391,313,174,103,117,2
212,858,889,427,275,171,117,131,2
220,834,900,423,267,168,126,134,2
211,810,907,412,275,158,123,133,2
227,886,942,449,312,169,135,138,2
226,894,882,461,316,167,142,146,2
201,875,849,404,365,179,135,129,2
194,835,882,421,369,169,135,128,2
183,799,870,410,369,175,128,118,2
157,661,903,382,343,169,118,113,2
163,614,945,356,374,181,99,113,2
152,655,979,401,358,217,103,109,2
155,711,972,383,393,235,98,114,2
166,743,932,362,404,232,108,120,2
167,778,901,319,441,247,105,113,2
165,865,856,368,445,241,105,105,2
168,809,753,324,429,225,100,118,2
160,781,663,343,407,244,92,106,2
169,853,743,355,392,240,88,100,2
189,857,732,390,340,229,99,123,2
194,801,769,392,347,235,106,131,2
201,815,828,452,353,216,99,119,2
213,843,839,442,344,176,105,128,2
205,735,808,459,350,194,111,133,2
206,754,868,448,400,203,114,124,2
210,774,881,440,346,190,110,121,2
213,812,853,416,390,186,118,123,2
204,850,872,402,408,213,116,127,2
213,913,860,365,434,201,112,140,2
204,853,753,373,451,210,114,140,2
189,806,695,352,496,221,118,142,2
173,840,705,301,474,215,133,142,2
176,822,717,318,464,194,142,135,2
169,802,732,348,423,192,141,125,2
147,809,741,343,416,201,135,111,2
154,897,781,333,389,228,144,102,2
187,845,812,342,386,246,143,115,2
193,966,823,344,370,250,151,133,2
202,1022,892,313,377,295,161,143,2
218,1034,880,320,350,307,215,175,2
235,986,918,361,427,290,255,201,2
212,1021,913,364,437,298,270,201,2
202,889,880,356,471,301,284,207,2
187,893,834,403,572,280,288,207,2
172,865,909,370,660,246,260,186,2
161,900,881,358,627,283,223,171,2
162,963,870,374,643,280,206,162,2
167,951,942,360,626,279,216,151,2
171,892,896,315,589,260,211,142,2
182,935,834,337,494,257,234,161,2
181,869,903,349,471,235,245,162,2
209,787,901,355,422,211,244,178,2
214,764,836,376,433,212,212,173,2
210,753,886,407,382,237,209,170,2
199,717,943,435,354,241,164,148,2
223,765,918,432,388,245,143,159,2
204,713,897,417,461,249,132,149,2
217,773,931,462,522,258,148,161,2
217,728,1005,460,517,235,159,156,2
236,737,965,433,512,224,165,170,2
195,745,904,394,468,189,165,145,2
180,779,941,404,410,209,164,132,2
145,766,895,358,316,184,162,113,2
146,810,788,318,298,178,143,115,2
107,794,737,301,310,178,131,94,2
115,816,816,295,359,195,120,113,2
119,848,758,256,351,179,119,119,2
117,827,783,266,361,189,87,110,2
111,818,770,271,364,210,85,107,2
128,951,792,263,346,222,101,124,2
126,926,683,274,315,204,106,110,2
122,888,731,259,299,216,176,113,2
132,869,705,227,324,214,199,120,2
134,880,778,261,324,200,212,127,2
116,770,812,276,306,179,208,109,2
117,804,857,276,311,196,218,107,2
123,901,937,343,397,193,173,94,2
111,891,937,332,387,207,159,87,2
112,896,883,324,402,245,155,91,2
120,868,849,320,413,281,175,95,2
116,785,829,313,411,285,196,96,2
114,627,723,263,325,289,288,97,2
118,600,720,314,314,295,319,95,2
125,525,713,315,343,275,312,88,2
127,577,797,349,348,246,307,83,2
131,644,785,354,372,224,289,75,2
131,681,771,360,396,206,201,81,2
131,701,729,315,384,193,156,86,2
132,829,752,314,329,168,166,89,2
133,860,693,271,321,162,170,100,2
124,886,781,265,281,177,180,107,2
137,878,774,292,307,194,169,107,2
148,898,809,308,317,203,155,108,2
159,908,724,302,338,220,149,109,2
163,865,689,325,344,220,139,106,2
168,863,543,336,379,215,121,104,2
156,873,566,334,351,192,120,97,2
147,877,583,312,335,160,108,100,2
122,757,627,311,305,126,100,97,2
122,776,691,328,302,117,91,95,2
114,672,729,337,299,92,94,91,2
118,620,731,309,295,93,111,102,2
118,566,727,375,307,132,118,100,2
115,525,713,372,334,141,121,97,2
109,448,709,364,325,145,141,94,2
121,455,699,352,293,140,158,98,2
117,527,690,375,278,149,153,92,2
117,541,670,310,291,133,163,92,2
113,555,687,305,266,122,168,92,2
108,565,732,281,280,120,153,88,2
112,607,777,319,276,189,135,86,2
107,585,782,320,268,195,129,84,2
107,590,785,324,285,193,116,75,2
125,628,816,321,296,194,107,80,2
130,651,833,363,272,193,105,92,2
118,614,796,336,277,134,94,89,2
117,586,783,355,279,107,89,89,2
117,568,753,351,238,89,111,105,2
97,510,729,348,285,122,128,100,2
82,445,591,293,310,133,144,87,2
69,429,548,279,309,127,143,81,2
77,473,533,215,321,126,144,83,2
69,579,528,254,318,125,123,60,2
75,619,577,271,267,91,107,61,2
76,602,582,264,235,63,76,61,2
85,623,625,264,226,64,72,64,2
81,582,592,255,212,63,68,62,2
93,499,590,210,274,87,99,69,2
96,468,504,246,273,86,97,68,2
117,509,518,275,286,95,102,81,2
124,496,489,275,277,100,108,90,2
136,552,506,299,367,134,111,95,2
136,562,538,334,314,120,98,92,2
136,594,552,300,317,125,101,94,2
115,554,558,278,300,120,95,81,2
104,535,557,275,295,112,89,68,2
93,511,582,258,158,72,82,69,2
82,470,558,232,156,69,83,71,2
89,467,538,250,139,59,78,69,2
92,526,597,250,137,56,81,79,2
94,551,560,246,138,57,80,83,2
87,551,495,252,168,55,85,79,2
86,561,502,272,196,55,74,79,2
76,549,529,256,200,91,74,78,2
77,553,500,270,206,94,72,72,2
86,575,656,335,259,102,74,76,2
90,546,659,344,295,103,80,70,2
90,538,659,332,280,110,74,75,2
85,560,612,326,283,82,74,72,2
82,493,588,317,293,76,76,70,2
69,476,584,308,252,68,74,61,2
67,514,612,290,189,89,65,62,2
59,513,643,275,186,88,60,51,2
67,509,698,274,245,94,60,61,2
79,579,714,272,244,97,58,64,2
79,591,645,247,243,94,58,61,2
84,580,615,252,242,71,56,60,2
89,638,575,277,227,59,54,60,2
84,585,527,273,148,47,54,50,2
72,518,482,267,115,40,50,43,2
79,483,425,302,95,36,54,51,2
73,455,465,280,76,36,53,53,2
65,337,488,254,68,36,56,52,2
65,352,481,253,119,35,53,55,2
65,341,460,286,139,43,51,55,2
59,422,516,221,164,50,46,57,2
61,426,557,229,171,54,46,53,2
77,472,543,230,179,56,56,62,2
77,482,577,238,164,57,53,60,2
90,519,670,205,155,54,55,62,2
88,480,672,235,172,60,65,57,2
93,545,616,233,192,64,68,62,2
84,640,663,236,225,91,61,58,2
88,728,687,249,294,96,70,65,2
80,759,608,261,336,102,74,70,2
97,790,612,242,338,125,68,80,2
94,754,653,237,336,136,67,78,2
95,676,649,238,318,120,67,77,2
94,629,647,221,251,119,61,72,2
89,657,715,199,199,116,58,66,2
73,591,656,208,164,85,57,55,2
66,584,657,230,156,60,53,53,2
69,550,604,234,185,62,57,57,2
74,513,597,231,214,55,61,74,2
86,435,521,271,216,67,71,82,2
84,421,574,278,247,90,73,85,2
83,397,529,269,239,94,74,82,2
94,488,568,261,258,93,70,84,2
91,460,515,263,240,94,68,72,2
79,412,577,295,230,81,58,65,2
76,406,531,273,225,66,51,56,2
88,416,580,268,235,65,51,73,2
80,322,568,276,235,75,53,72,2
79,317,671,295,253,102,55,72,2
78,302,601,241,251,105,49,67,2
88,417,604,233,229,98,53,72,2
78,432,560,243,217,95,52,59,2
72,514,598,256,188,87,48,53,2
74,522,523,287,148,74,44,48,2
75,616,565,275,162,116,54,53,2
74,582,577,280,180,137,56,54,2
74,657,664,286,196,139,59,59,2
75,582,633,275,170,145,65,63,2
77,587,613,238,170,136,67,66,2
80,552,605,235,158,104,66,68,2
102,563,634,327,217,90,75,94,2
101,474,601,318,280,107,77,91,2
104,516,578,333,325,123,91,95,2
123,585,570,325,375,129,100,111,2
135,578,609,376,394,138,98,117,2
126,681,616,292,366,139,92,103,2
136,732,600,294,342,154,93,108,2
147,834,616,290,314,155,84,118,2
143,832,641,284,258,155,79,114,2
138,864,598,208,224,148,85,112,2
147,786,676,277,214,144,85,118,2
145,757,654,320,176,116,83,121,2
138,718,701,311,174,105,85,111,2
130,739,786,333,187,122,95,103,2
128,751,834,367,211,130,101,104,2
109,779,798,353,242,176,147,94,2
115,793,845,311,258,190,149,89,2
126,719,872,308,266,192,162,95,2
134,667,812,294,257,190,157,101,2
132,671,840,262,245,225,157,94,2
140,723,929,293,268,205,115,94,2
128,708,944,337,256,207,115,90,2
110,695,899,338,248,220,91,80,2
100,667,903,344,273,216,85,72,2
100,664,835,351,298,194,72,70,2
100,696,772,295,270,209,71,66,2
114,733,769,255,262,207,69,75,2
127,790,817,262,295,196,76,89,2
122,843,805,286,300,199,76,88,2
119,821,794,267,287,179,78,85,2
118,764,711,286,323,166,92,99,2
126,813,690,322,360,159,91,101,2
117,781,636,341,327,165,89,91,2
126,767,726,311,321,153,88,95,2
140,788,819,346,362,162,88,99,2
128,741,831,365,337,161,72,86,2
117,678,800,362,323,152,73,82,2
114,743,792,355,348,138,63,79,2
109,758,705,363,359,138,69,78,2
92,722,657,355,311,124,68,74,2
92,717,590,335,282,84,72,76,2
87,724,684,366,305,83,73,85,2
84,640,794,356,292,70,83,87,2
86,589,760,391,274,68,84,88,2
86,597,762,407,323,65,83,91,2
94,616,828,413,343,72,81,93,2
88,566,744,376,325,77,79,81,2
87,576,600,364,307,76,68,76,2
81,548,611,310,306,138,60,74,2
76,503,651,290,262,143,73,69,2
63,493,600,264,243,146,81,62,2
77,529,638,228,272,146,81,64,2
73,500,638,237,268,156,82,64,2
69,568,736,275,246,113,80,56,2
92,602,670,257,247,112,66,63,2
95,583,670,256,248,111,50,63,2
93,579,612,263,174,104,50,67,2
102,594,601,285,190,89,48,71,2
105,604,627,251,200,106,51,72,2
89,578,617,233,198,103,50,69,2
87,638,627,219,196,97,52,73,2
83,589,670,230,187,93,46,64,2
76,609,677,301,191,91,45,60,2
94,615,616,314,200,56,62,70,2
107,690,644,362,189,53,75,80,2
147,716,680,444,186,63,84,96,2
156,763,760,444,188,66,85,100,2
156,812,760,393,190,70,116,108,2
165,795,757,389,168,78,121,122,2
158,727,766,381,295,157,118,117,2
123,676,750,317,338,174,115,102,2
119,666,639,325,348,187,116,102,2
123,605,668,302,356,192,92,98,2
100,590,601,349,366,207,74,75,2
100,578,544,335,341,167,68,71,2
97,516,569,299,300,183,65,71,2
82,500,555,274,294,178,64,68,2
78,563,603,319,280,216,57,61,2
70,549,602,278,269,226,62,57,2
67,541,629,245,188,224,62,63,2
66,545,545,261,208,201,58,63,2
71,534,554,293,209,194,59,69,2
66,446,452,252,193,149,56,68,2
64,397,506,227,215,121,50,74,2
62,396,510,227,213,129,55,69,2
64,427,549,219,211,149,55,67,2
60,398,578,240,242,158,51,59,2
58,376,572,236,249,162,49,56,2
58,436,522,239,237,156,49,50,2
59,448,520,242,232,143,51,50,2
56,416,537,248,203,112,50,49,2
56,419,484,197,153,98,51,47,2
60,444,539,195,143,107,55,49,2
59,429,568,205,195,99,55,51,2
60,407,547,202,205,91,48,51,2
59,445,499,249,218,92,48,54,2
65,456,507,252,230,90,50,57,2
65,416,575,261,241,61,47,63,2
65,402,572,312,244,102,52,57,2
61,447,539,321,230,102,55,56,2
60,415,574,329,219,104,58,53,2
55,449,575,343,216,105,58,49,2
53,491,571,344,297,113,56,42,2
63,487,583,302,272,98,49,43,2
68,463,590,317,277,103,45,46,2
81,464,590,299,278,107,49,58,2
81,403,589,279,292,106,60,66,2
82,354,506,302,209,96,65,66,2
73,306,472,294,189,75,67,72,2
82,278,605,288,200,72,76,82,2
75,254,598,296,207,62,75,78,2
76,248,612,302,177,61,70,75,2
74,234,595,290,160,56,69,72,2
75,299,649,290,158,54,72,70,2
60,368,615,374,138,45,66,56,2
57,377,593,339,116,39,64,50,2
55,483,594,344,142,43,63,53,2
59,496,640,363,155,46,65,60,2
59,471,600,400,176,42,68,69,2
70,456,588,328,211,52,73,74,2
72,450,644,367,218,56,76,76,2
68,429,657,398,247,75,81,75,2
73,442,639,407,278,96,87,82,2
79,435,649,425,298,116,86,73,2
75,439,608,436,304,123,87,75,2
88,446,662,434,338,136,92,83,2
96,363,650,407,319,134,96,85,2
105,459,754,429,312,149,97,85,2
115,533,805,459,308,152,96,96,2
115,561,824,478,281,147,93,94,2
117,579,778,478,256,148,94,91,2
114,618,836,484,244,144,83,88,2
103,600,738,450,211,116,77,82,2
87,553,689,407,208,121,78,67,2
82,506,687,362,211,122,78,69,2
72,509,728,400,258,106,69,69,2
71,450,684,387,271,103,73,67,2
72,378,716,410,277,100,75,65,2
79,389,710,442,254,70,75,83,2
82,377,705,473,264,85,75,81,2
90,400,705,450,239,87,76,97,2
86,393,758,459,240,89,74,96,2
85,399,738,471,270,88,69,97,2
99,422,762,408,276,83,68,94,2
97,465,804,370,282,64,66,95,2
94,451,838,367,272,67,66,77,2
101,562,786,368,290,74,63,79,2
111,588,830,306,264,76,68,83,2
94,595,809,329,299,100,65,70,2
104,573,797,358,307,100,65,76,2
97,545,722,345,306,102,61,73,2
91,513,742,339,294,127,66,73,2
78,536,688,340,297,127,61,66,2
81,524,745,350,248,113,56,62,2
80,521,721,450,248,120,61,61,2
79,583,703,441,229,135,67,67,2
79,589,780,461,237,146,63,72,2
80,555,802,476,225,149,60,76,2
75,519,780,465,234,146,60,77,2
63,559,790,397,211,148,53,71,2
63,529,800,395,268,138,45,68,2
64,534,729,365,262,127,47,63,2
77,568,740,393,265,129,46,62,2
76,583,736,373,316,150,45,60,2
80,553,739,341,309,147,41,57,2
77,604,740,357,285,147,39,51,2
77,586,733,366,269,144,38,50,2
69,583,721,319,266,150,43,49,2
73,603,711,334,231,138,48,50,2
72,637,658,353,282,180,52,51,2
79,601,674,341,289,176,58,59,2
82,593,700,332,284,167,58,64,2
80,595,704,325,284,159,57,61,2
86,612,723,343,276,157,55,67,2
83,584,767,309,237,120,59,69,2
86,566,784,323,185,122,57,72,2
101,573,789,366,198,113,62,78,2
103,557,796,370,201,116,67,80,2
97,507,746,353,192,109,79,82,2
111,569,725,347,212,117,74,86,2
108,600,741,340,214,114,76,83,2
90,579,722,298,217,115,70,74,2
92,538,700,322,232,112,67,78,2
98,582,793,321,236,132,61,77,2
85,505,836,343,261,123,60,69,2
86,496,876,377,307,138,57,69,2
91,591,892,380,301,135,70,74,2
85,600,891,351,290,135,70,69,2
96,612,891,398,279,114,65,69,2
100,616,911,384,239,125,69,73,2
105,626,884,329,205,119,69,74,2
102,508,851,328,206,124,66,71,2
101,552,925,336,210,126,62,69,2
101,522,900,282,202,125,60,69,2
96,512,856,346,187,97,58,74,2
114,457,826,371,187,120,62,81,2
116,469,869,360,198,128,56,84,2
122,521,829,380,192,125,60,88,2
111,552,788,369,201,126,65,87,2
133,614,811,292,218,128,71,98,2
133,645,814,308,210,111,69,102,2
138,647,766,303,196,94,67,102,2
151,621,718,312,195,93,73,108,2
166,636,797,311,187,95,77,117,2
161,628,785,309,161,95,76,115,2
164,652,762,266,138,76,81,120,2
177,717,786,269,124,73,97,136,2
204,759,823,219,116,74,101,149,2
198,763,879,267,117,70,99,148,2
193,728,827,260,150,64,99,146,2
199,706,821,260,145,69,99,135,2
187,715,804,271,161,69,89,116,2
155,679,852,290,163,64,84,97,2
162,719,724,256,163,63,86,92,2
165,747,805,314,132,67,83,86,2
145,741,798,303,129,56,79,85,2
137,668,765,285,103,51,75,89,2
158,675,667,281,102,55,84,117,2
158,599,676,312,103,62,96,131,2
166,566,607,285,85,56,99,141,2
173,561,608,306,90,67,111,160,2
194,574,611,309,89,72,115,164,2
197,536,671,347,91,75,109,152,2
219,574,669,347,93,72,101,147,2
215,657,699,381,101,76,112,149,2
219,677,727,416,107,68,108,147,2
206,689,778,445,113,62,106,143,2
214,768,726,444,119,55,105,140,2
220,768,715,444,114,54,106,144,2
265,786,705,434,113,62,112,158,2
271,779,661,412,113,63,110,150,2
302,859,621,413,116,67,126,167,2
284,800,607,418,110,73,137,174,2
274,833,626,445,132,79,146,180,2
252,793,616,424,131,76,139,169,2
242,818,687,438,131,76,139,171,2
231,796,756,427,132,78,143,161,2
269,881,909,471,146,85,140,166,2
276,866,898,426,134,83,138,156,2
270,892,940,460,138,80,141,150,2
274,853,911,433,132,86,165,143,2
270,812,913,482,148,88,169,168,2
257,728,831,428,136,94,173,157,2
267,775,832,487,133,94,180,181,2
256,730,859,454,125,92,173,187,2
269,765,926,465,129,85,148,198,2
269,775,929,417,120,89,129,174,2
258,790,842,402,113,70,125,177,2
242,702,845,327,113,70,103,152,2
242,706,751,382,125,74,107,140,2
227,695,763,395,122,76,110,127,2
218,689,876,441,115,67,116,125,2
195,638,892,508,129,69,110,112,2
182,615,946,564,140,69,139,129,2
197,591,952,663,159,73,185,182,2
207,597,860,657,158,70,186,191,2
195,568,689,655,153,65,186,198,2
197,533,717,614,141,66,197,215,2
179,554,679,599,149,63,184,203,2
155,556,662,452,127,55,139,164,2
119,623,742,458,122,56,146,151,2
106,667,765,440,135,55,141,141,2
127,705,795,425,136,50,124,119,2
137,693,799,392,110,51,111,124,2
148,682,814,413,112,58,117,142,2
157,597,778,418,140,82,114,145,2
164,519,776,386,136,85,112,151,2
163,465,742,393,147,93,127,160,2
163,519,693,403,151,96,140,161,2
153,530,733,424,156,95,139,137,2
149,546,781,413,159,82,131,133,2
146,556,762,418,166,85,140,140,2
136,558,773,481,174,85,127,137,2
131,492,852,520,187,82,115,129,2
145,488,930,514,182,79,100,147,2
140,471,913,528,171,74,102,151,2
138,499,909,554,243,101,87,138,2
125,512,894,519,251,103,77,121,2
132,511,845,476,243,103,96,132,2
117,530,715,525,242,102,97,110,2
128,511,663,505,260,100,95,102,2
131,482,649,537,188,74,96,112,2
134,458,665,583,185,76,107,125,2
124,478,656,588,202,115,91,114,2
120,477,683,515,206,120,93,113,2
103,472,674,509,176,121,93,114,2
103,502,721,477,176,118,91,109,2
98,548,726,426,157,111,92,99,2
97,596,713,410,161,72,96,103,2
100,589,712,427,168,93,93,106,2
103,586,766,448,195,100,90,101,2
96,555,706,450,211,107,90,91,2
105,563,706,447,211,111,77,96,2
126,511,775,459,213,117,72,94,2
126,484,741,497,221,108,90,95,2
131,517,702,505,207,120,101,107,2
134,527,828,519,191,114,100,113,2
140,547,802,495,195,113,105,113,2
127,518,725,481,182,105,108,124,2
129,531,733,489,173,95,97,118,2
129,525,715,517,162,98,107,124,2
122,511,629,488,175,100,107,117,2
107,523,662,544,176,97,108,114,2
102,518,686,546,183,113,104,103,2
93,498,752,484,198,110,109,108,2
89,480,734,452,200,90,88,98,2
105,512,814,433,218,94,91,105,2
105,471,802,369,207,93,88,102,2
119,583,790,361,225,78,87,99,2
121,607,816,415,209,84,94,96,2
116,612,847,435,230,101,99,86,2
102,574,778,454,211,98,98,80,2
104,523,757,483,226,109,98,77,2
81,408,755,494,209,105,101,76,2
80,406,711,451,208,118,87,73,2
81,489,681,486,199,103,84,80,2
85,630,707,456,209,120,79,75,2
88,659,733,426,210,128,73,72,2
105,744,814,481,223,143,69,73,2
112,771,801,507,290,133,66,75,2
110,741,872,456,298,134,64,68,2
113,683,836,521,294,145,70,75,2
140,774,839,514,292,146,79,91,2
135,784,807,493,295,156,78,90,2
134,814,866,489,258,189,77,89,2
134,808,825,489,261,200,73,89,2
136,823,836,512,273,189,70,88,2
109,758,811,532,278,184,58,73,2
106,708,795,527,261,193,59,72,2
108,626,754,537,256,170,63,70,2
103,594,738,546,246,185,62,66,2
95,585,689,470,250,190,63,63,2
88,547,732,431,263,200,65,60,2
80,484,746,381,296,179,69,58,2
83,542,663,342,278,172,73,72,2
84,579,660,306,276,142,75,75,2
89,529,724,332,247,125,73,74,2
93,502,712,346,225,97,71,75,2
93,560,685,325,185,119,61,70,2
103,555,754,404,202,125,59,74,2
108,551,776,391,234,129,56,75,2
109,572,704,384,262,138,53,76,2
110,612,726,372,291,146,58,84,2
118,559,705,413,286,123,63,89,2
104,556,682,328,278,112,55,73,2
102,552,728,329,233,103,54,73,2
101,566,774,315,220,95,57,72,2
100,605,723,311,174,112,52,73,2
94,648,711,312,187,118,52,73,2
100,645,765,327,186,122,56,82,2
103,633,675,327,192,121,60,82,2
103,632,649,327,168,116,60,84,2
105,582,693,338,178,142,71,84,2
110,590,695,303,175,141,71,86,2
104,562,665,309,167,145,68,79,2
103,614,727,303,157,147,65,76,2
100,580,716,282,175,156,66,74,2
101,592,694,305,173,120,58,70,2
105,606,752,328,152,120,64,78,2
115,680,722,317,153,114,66,83,2
126,662,693,341,158,118,71,96,2
127,698,727,340,150,102,76,102,2
124,735,753,376,137,91,80,106,2
121,686,722,368,129,81,76,103,2
117,663,695,371,119,79,76,106,2
113,671,677,415,123,72,75,101,2
115,704,734,443,127,71,72,101,2
114,648,691,405,176,67,67,100,2
105,731,815,399,181,66,64,91,2
100,667,817,419,191,59,61,87,2
95,692,796,366,190,55,57,80,2
103,680,795,382,196,59,64,83,2
109,686,800,439,183,60,63,80,2
125,682,669,457,181,58,66,86,2
138,749,721,424,168,58,69,87,2
150,722,789,423,166,61,77,100,2
179,712,724,382,194,79,71,105,2
183,801,750,365,173,78,71,107,2
182,770,734,348,194,82,80,106,2
176,737,744,383,209,80,78,105,2
178,715,763,381,221,81,89,114,2
184,757,754,378,190,71,101,116,2
175,671,703,321,180,65,101,112,2
170,660,728,309,158,61,93,113,2
168,663,774,318,138,66,99,115,2
157,707,696,298,120,64,94,100,2
119,597,717,297,127,53,85,100,2
127,627,723,297,129,56,84,102,2
126,623,697,294,130,58,91,103,2
126,589,557,310,153,55,95,99,2
120,590,588,312,146,55,87,97,2
106,611,526,331,140,52,78,76,2
94,560,561,335,142,50,78,75,2
95,502,560,363,136,48,73,79,2
107,530,593,337,139,46,59,87,2
116,445,528,345,255,88,51,87,2
128,445,573,328,252,106,54,95,2
134,457,609,345,256,114,55,93,2
135,460,628,335,261,116,49,85,2
134,439,619,298,244,116,47,82,2
130,466,675,300,129,88,51,81,2
121,429,675,301,148,71,52,76,2
119,387,627,300,155,78,49,76,2
114,417,637,274,151,76,50,78,2
106,387,599,275,153,82,50,73,2
100,377,530,259,165,87,49,69,2
96,388,511,258,162,87,47,66,2
92,424,484,237,163,70,45,62,2
95,437,401,242,164,76,44,60,2
78,429,398,239,182,74,41,52,2
80,399,493,237,173,71,37,54,2
82,436,524,244,162,77,39,54,2
86,431,544,237,169,79,43,58,2
89,412,596,218,169,70,42,58,2
101,428,625,224,163,78,48,72,2
100,458,622,223,158,93,48,71,2
98,397,598,226,185,88,48,73,2
98,365,580,212,172,88,49,82,2
90,361,561,212,178,91,48,79,2
88,344,564,233,206,93,59,74,2
104,340,584,245,219,86,65,80,2
125,434,572,249,195,97,67,83,2
124,451,579,260,191,98,64,75,2
145,469,610,323,198,107,72,93,2
143,480,618,310,177,102,68,99,2
132,523,546,308,164,95,68,101,2
113,485,558,292,158,81,66,97,2
117,505,586,296,216,86,72,101,2
106,494,557,261,230,95,76,102,2
113,521,548,277,231,89,72,95,2
111,468,622,276,238,88,66,86,2
108,442,620,280,239,90,67,85,2
115,469,586,327,191,85,66,88,2
105,460,639,310,158,73,57,70,2
94,458,649,301,180,73,55,66,2
93,464,586,317,171,74,57,67,2
104,510,602,333,250,77,55,67,2
87,451,616,295,256,76,51,56,2
80,522,555,307,272,83,49,58,2
78,502,573,298,276,88,46,57,2
77,465,645,282,292,87,46,59,2
63,405,691,284,234,92,46,58,2
63,420,685,304,262,101,45,56,2
72,419,665,282,267,101,41,56,2
72,404,713,301,251,98,42,53,2
74,427,641,301,284,109,40,50,2
78,466,649,279,289,117,42,51,2
83,466,672,268,289,122,46,57,2
76,414,716,324,281,125,45,53,2
75,422,670,320,305,123,43,54,2
78,424,703,317,313,132,45,56,2
72,387,651,352,322,120,40,54,2
63,384,631,349,317,106,34,48,2
64,331,707,323,336,114,38,54,2
69,330,658,344,338,140,41,57,2
63,364,623,338,294,127,39,58,2
67,347,576,311,309,137,42,58,2
76,461,579,323,304,137,44,61,2
78,472,445,315,286,131,42,57,2
77,528,496,304,256,104,41,57,2
84,510,579,336,281,102,44,65,2
86,551,606,342,330,97,49,69,2
92,486,644,368,320,97,47,78,2
91,543,713,380,318,80,51,78,2
89,509,689,378,313,77,52,77,2
85,542,669,384,287,83,59,74,2
86,556,675,398,191,73,58,74,2
72,542,654,387,192,72,61,63,2
67,480,591,392,211,74,64,61,2
66,497,635,405,206,76,67,60,2
65,502,596,399,213,84,64,58,2
65,503,621,389,209,86,77,62,2
77,642,664,357,214,87,81,70,2
92,684,681,353,176,87,86,89,2
100,651,721,323,166,92,95,94,2
100,616,766,329,170,75,96,97,2
116,581,777,342,169,80,92,109,2
124,447,757,352,149,80,91,112,2
115,441,764,403,157,75,85,102,2
114,474,763,404,180,68,75,104,2
117,530,840,435,170,67,77,110,2
105,523,820,483,172,58,77,103,2
121,623,877,482,183,63,92,128,2
141,694,974,483,178,68,102,140,2
148,773,937,506,167,75,112,153,2
151,771,877,472,178,79,121,159,2
156,853,906,413,168,81,117,157,2
135,780,855,398,151,74,106,137,2
114,695,734,322,146,70,95,125,2
113,663,775,311,154,66,84,112,2
115,661,811,343,135,64,68,97,2
110,600,770,330,138,66,74,105,2
113,636,792,317,135,66,72,100,2
121,638,817,323,134,67,71,105,2
110,562,778,306,108,61,70,92,2
108,539,726,314,106,61,76,91,2
104,662,755,323,113,57,80,93,2
99,688,727,344,119,56,83,92,2
102,804,734,338,117,55,88,92,2
131,818,761,330,113,55,87,108,2
144,815,710,266,101,57,83,114,2
144,709,727,253,79,50,79,106,2
150,641,772,238,78,49,73,107,2
144,560,737,277,82,49,64,97,2
120,543,703,282,94,48,67,84,2
115,586,694,288,99,49,64,75,2
128,646,644,299,107,54,55,72,2
122,674,624,320,107,55,56,73,2
161,645,671,322,114,63,63,93,2
161,691,678,317,107,68,62,100,2
155,651,710,320,101,65,64,104,2
144,563,709,393,96,62,90,104,2
175,676,643,425,118,67,95,106,2
154,633,527,447,116,67,96,103,2
181,631,517,457,125,96,101,107,2
194,685,492,468,155,119,101,104,2
200,721,509,400,163,124,80,104,2
196,683,591,389,172,130,85,132,2
220,776,628,384,183,135,86,139,2
208,776,766,425,201,119,82,136,2
228,863,869,484,256,112,91,156,2
240,899,921,534,329,121,97,160,2
237,819,941,535,336,135,112,162,2
212,749,944,510,343,139,110,155,2
232,791,841,468,344,146,117,163,2
221,668,765,406,338,148,136,164,2
225,642,726,403,299,210,136,168,2
220,757,629,411,303,205,119,143,2
229,790,645,400,304,241,119,143,2
211,751,719,424,292,239,109,132,2
191,758,725,414,241,234,72,105,2
165,726,716,380,198,174,80,94,2
151,657,767,361,156,163,77,95,2
151,665,750,374,120,92,79,104,2
152,692,720,386,109,79,79,102,2
159,679,733,410,124,72,82,108,2
188,663,700,388,128,80,84,130,2
210,674,715,389,139,88,93,140,2
198,742,729,403,149,90,90,134,2
187,737,715,380,149,89,88,131,2
187,783,659,350,134,87,87,128,2
159,779,658,347,130,81,72,106,2
145,769,588,315,116,71,61,91,2
149,713,563,271,101,63,56,84,2
161,670,616,261,105,68,66,99,2
147,600,666,259,101,65,64,96,2
164,694,724,235,90,59,59,95,2
164,693,763,263,108,69,66,107,2
157,666,763,270,110,69,69,112,2
144,670,735,267,105,66,61,100,2
149,676,739,261,149,72,62,102,2
133,638,703,269,158,72,65,102,2
137,671,639,254,156,67,62,93,2
143,642,691,255,158,65,61,88,2
135,655,615,242,189,72,78,82,2
137,683,606,314,205,75,87,82,2
137,670,622,339,206,75,87,76,2
112,592,674,326,213,76,85,73,2
109,645,676,339,221,78,89,75,2
120,621,701,346,210,99,81,92,2
120,578,665,325,274,132,77,91,2
111,574,607,297,299,150,83,97,2
114,572,596,300,316,152,90,107,2
109,573,550,305,318,166,83,103,2
108,590,625,292,343,163,78,95,2
108,587,749,241,273,135,70,95,2
109,553,766,269,246,115,61,88,2
106,568,816,288,209,110,45,73,2
101,474,817,278,194,97,51,69,2
91,409,777,282,200,108,50,65,2
85,422,715,293,229,120,64,75,2
86,464,745,303,239,124,65,75,2
85,455,695,289,254,127,68,76,2
89,460,696,287,289,124,65,75,2
108,477,698,281,310,111,67,81,2
115,457,745,307,294,109,55,91,2
118,472,791,322,309,116,56,96,2
120,543,821,316,318,124,56,97,2
129,567,827,358,311,120,60,107,2
117,550,804,383,255,119,61,108,2
115,600,768,373,260,112,61,95,2
113,558,702,341,269,103,59,95,2
111,476,640,366,247,85,55,94,2
96,456,685,313,217,85,51,87,2
108,518,726,291,204,69,53,87,2
102,438,697,306,215,60,60,82,2
102,422,680,331,169,53,61,80,2
106,483,776,318,203,76,65,83,2
109,472,699,327,221,79,68,82,2
89,440,701,337,230,79,63,73,2
83,457,685,303,276,79,55,70,2
75,443,694,287,288,79,52,66,2
68,393,612,257,274,60,53,63,2
63,382,609,245,259,56,46,59,2
67,389,646,250,257,57,55,66,2
72,370,644,264,223,61,65,68,2
77,364,666,269,242,81,74,72,2
76,410,646,292,257,95,74,69,2
79,432,656,305,276,95,78,76,2
75,406,555,293,287,93,76,73,2
76,428,536,322,249,90,69,77,2
77,431,493,302,215,71,64,77,2
85,421,573,324,215,49,63,80,2
89,458,577,401,213,48,63,76,2
93,473,615,435,198,51,69,74,2
92,470,623,452,222,64,66,69,2
90,489,600,542,224,68,65,65,2
87,449,534,546,244,78,64,62,2
86,435,593,504,270,85,71,75,2
95,487,605,494,282,85,73,89,2
100,490,625,500,283,78,75,93,2
110,498,645,452,280,81,88,104,2
122,545,645,427,250,75,101,116,2
122,515,635,465,214,71,116,116,2
117,475,674,442,200,70,122,109,2
124,524,734,416,170,71,129,118,2
156,526,829,405,174,83,142,130,2
174,551,851,475,168,93,140,138,2
201,594,927,488,170,107,137,163,2
202,637,883,505,162,106,137,166,2
217,653,833,517,167,112,145,165,2
207,701,750,542,161,103,136,160,2
208,721,774,525,154,101,157,180,2
202,743,651,484,135,88,163,166,2
224,766,742,473,137,89,156,175,2
252,799,724,460,142,86,152,196,2
264,782,828,386,137,85,147,200,2
265,740,822,347,142,78,120,183,2
263,791,901,350,141,78,108,176,2
265,799,902,345,142,79,111,181,2
239,773,994,305,134,76,103,154,2
225,775,912,309,130,72,115,162,2
224,843,960,334,131,69,117,156,2
231,824,907,391,148,66,118,163,2
222,802,872,396,158,71,118,149,2
211,774,787,432,157,70,116,146,2
199,749,791,455,159,69,101,122,2
203,724,705,483,159,82,109,135,2
189,643,759,475,149,81,95,124,2
171,606,731,535,157,81,98,124,2
172,558,772,543,156,82,102,130,2
172,604,818,555,165,82,99,130,2
142,517,814,577,173,69,82,103,2
147,566,741,576,168,68,79,96,2
147,548,720,518,158,65,72,94,2
142,624,702,525,163,63,61,87,2
140,579,630,502,159,68,61,87,2
137,575,646,443,134,67,60,85,2
119,600,628,420,128,67,61,82,2
117,644,693,439,123,59,58,81,2
113,592,623,389,115,58,59,86,2
127,661,659,389,114,55,59,88,2
137,676,618,356,115,55,58,91,2
131,621,690,310,111,50,54,87,2
143,582,660,294,102,55,57,90,2
150,559,710,300,95,55,55,87,2
145,446,665,305,89,53,53,88,2
133,429,718,292,86,53,53,84,2
147,439,696,281,83,53,54,88,2
156,419,630,275,83,48,47,83,2
149,439,585,313,86,46,46,81,2
143,443,597,307,79,45,44,73,2
144,413,582,361,94,45,47,75,2
141,379,558,360,96,49,51,82,2
115,415,563,354,86,49,51,78,2
110,416,587,371,96,53,48,72,2
128,493,570,434,99,54,54,75,2
132,539,514,396,90,52,52,73,2
120,624,523,403,89,51,49,64,2
127,602,620,407,96,54,51,70,2
128,672,626,356,91,61,60,80,2
104,614,631,247,89,58,55,81,2
102,624,662,230,85,57,56,83,2
118,595,670,222,88,59,58,89,2
120,603,639,187,83,57,62,98,2
122,560,648,199,83,53,60,97,2
145,593,740,220,93,63,69,109,2
150,542,809,227,97,67,72,116,2
145,474,815,231,101,68,75,119,2
146,467,814,238,104,68,71,111,2
152,435,822,217,93,62,66,108,2
138,460,792,227,85,54,59,97,2
139,513,793,261,113,60,60,96,2
146,510,900,296,138,71,61,91,2
137,480,921,366,153,76,68,93,2
139,451,942,409,173,87,88,116,2
138,418,982,439,192,98,96,127,2
150,400,959,518,203,103,101,133,2
142,395,861,527,190,98,104,139,2
141,406,871,501,182,99,104,140,2
147,460,849,489,164,91,88,126,2
159,451,796,479,155,89,87,127,2
162,438,787,402,134,86,85,131,2
169,505,875,372,129,84,81,124,2
182,577,858,352,142,83,80,131,2
171,584,866,349,152,89,87,130,2
161,586,857,358,167,80,77,116,2
159,590,839,353,180,79,75,111,2
148,565,745,349,222,85,76,111,2
136,518,734,358,256,101,72,102,2
133,536,737,371,271,102,66,94,2
124,507,728,324,260,101,64,95,2
132,497,747,294,308,106,66,101,2
130,479,713,291,345,104,60,96,2
125,437,650,315,333,88,63,92,2
118,351,572,264,331,89,61,91,2
124,385,588,293,364,105,69,97,2
93,374,524,287,326,100,65,76,2
94,374,501,294,272,96,66,82,2
98,404,540,243,286,97,63,87,2
109,412,587,250,276,100,65,94,2
106,398,567,236,276,102,65,97,2
103,399,551,257,297,104,63,97,2
100,384,584,263,298,106,63,90,2
101,370,550,261,280,106,68,92,2
89,347,501,258,310,96,64,83,2
88,355,571,255,341,106,71,81,2
90,322,580,236,325,105,70,82,2
89,329,542,210,333,136,70,82,2
90,387,595,297,344,141,64,78,2
90,387,636,314,329,147,65,77,2
81,379,589,336,281,135,45,62,2
81,392,610,408,306,133,43,61,2
84,400,649,416,303,98,41,66,2
76,369,623,384,328,98,42,59,2
80,413,629,424,332,100,45,64,2
83,428,704,398,340,112,51,69,2
76,418,776,338,341,110,51,65,2
75,439,829,342,337,118,52,62,2
103,448,838,328,286,109,55,77,2
102,445,826,271,265,98,54,76,2
107,495,751,274,237,69,52,78,2
111,522,664,280,265,64,54,82,2
112,499,563,287,260,56,55,86,2
86,453,523,282,263,51,50,73,2
87,432,499,280,269,56,49,73,2
91,474,526,283,267,58,53,74,2
94,487,507,258,202,60,53,76,2
97,522,502,233,181,54,62,86,2
101,542,504,323,190,70,78,89,2
100,562,505,311,182,67,83,93,2
123,515,459,322,187,74,98,123,2
123,520,549,384,200,78,107,123,2
134,573,572,413,199,81,113,116,2
132,565,589,376,191,73,114,120,2
139,536,619,409,198,77,119,124,2
123,510,608,426,192,83,122,95,2
128,498,511,419,174,82,121,108,2
140,403,525,446,189,91,120,137,2
148,477,568,433,185,90,120,146,2
149,493,576,433,206,89,121,151,2
141,523,618,418,202,80,109,148,2
148,516,638,413,198,79,128,141,2
133,501,631,395,187,71,132,120,2
139,497,606,426,239,86,137,106,2
132,515,547,455,232,88,151,94,2
134,457,546,458,244,88,152,100,2
116,443,589,425,236,84,136,92,2
103,518,552,410,239,77,132,77,2
78,478,559,375,194,60,125,69,2
74,449,556,350,245,58,102,64,2
73,482,510,344,238,59,96,60,2
73,502,446,338,246,61,91,65,2
68,526,448,300,242,62,75,62,2
71,528,423,331,249,64,63,66,2
68,645,442,274,247,66,54,63,2
61,618,429,264,247,63,53,58,2
78,640,462,273,270,70,55,60,2
80,563,472,277,271,72,69,70,2
97,585,510,256,270,70,74,75,2
101,448,493,270,205,61,74,75,2
100,448,563,251,194,60,73,75,2
87,470,569,238,160,50,70,71,2
87,459,560,229,160,45,54,63,2
71,439,545,239,138,45,45,52,2
74,489,543,238,145,41,41,50,2
74,568,600,261,141,38,37,47,2
84,576,566,276,139,43,38,48,2
83,591,578,278,145,45,42,55,2
77,614,534,235,151,43,37,54,2
74,629,596,225,140,46,41,59,2
94,573,514,202,137,51,47,63,2
97,538,527,178,122,51,46,66,2
105,592,517,193,123,50,45,64,2
117,592,567,189,113,55,52,72,2
115,555,511,197,133,59,50,73,2
101,653,488,196,144,73,48,71,2
94,681,488,198,160,77,48,69,2
99,673,533,202,192,79,52,71,2
115,644,581,258,231,81,51,71,2
131,717,673,272,240,85,57,79,2
136,632,711,279,274,94,56,78,2
136,576,722,288,302,96,56,77,2
142,591,752,301,296,101,58,84,2
134,630,752,258,270,101,64,91,2
140,586,688,244,256,98,59,85,2
139,680,648,254,217,77,60,87,2
138,717,677,243,182,71,59,86,2
147,775,664,269,186,65,56,87,2
147,760,614,278,196,65,53,87,2
135,746,593,267,200,60,51,86,2
133,677,621,247,198,57,53,90,2
142,682,550,258,185,57,56,94,2
118,619,581,248,177,51,53,86,2
117,590,587,238,163,48,51,79,2
118,621,607,243,156,51,51,77,2
121,688,577,249,149,52,47,70,2
132,646,608,243,145,54,50,79,2
138,602,558,190,100,53,52,79,2
138,635,563,174,94,52,52,83,2
140,645,637,176,90,52,53,87,2
144,580,661,191,89,53,55,91,2
148,619,692,200,86,56,59,93,2
175,712,723,207,87,58,64,103,2
172,733,699,207,78,57,63,103,2
168,681,633,202,72,54,60,98,2
170,694,610,186,71,58,61,102,2
169,671,554,178,68,54,53,92,2
161,623,500,222,80,59,51,88,2
190,639,600,245,101,76,74,132,2
202,678,629,245,108,83,83,146,2
207,647,628,253,111,82,87,149,2
199,666,693,240,110,82,89,152,2
191,673,680,216,107,79,91,152,2
173,666,640,192,90,63,73,122,2
161,664,583,195,83,56,67,109,2
149,679,683,207,93,60,67,107,2
141,688,733,210,100,58,63,99,2
122,612,801,189,132,58,58,92,2
110,600,808,217,255,61,78,83,2
112,555,865,216,369,109,125,95,2
123,583,811,202,385,124,152,92,2
125,542,731,238,478,160,184,94,2
129,543,685,236,576,172,200,98,2
122,586,680,238,568,179,201,92,2
116,608,674,233,543,184,180,80,2
108,598,658,232,595,194,165,87,2
106,598,717,210,568,175,160,98,2
119,637,752,224,517,182,148,103,2
122,554,764,208,553,210,141,110,2
125,542,756,210,548,197,139,112,2
116,500,779,214,630,224,214,99,2
117,535,724,204,617,229,216,99,2
103,501,662,187,603,223,216,96,2
95,477,617,158,641,212,222,90,2
90,463,581,159,715,225,234,90,2
91,585,560,158,655,185,193,103,2
85,580,602,160,670,185,189,93,2
81,585,653,156,677,188,188,94,2
87,591,682,162,591,174,177,94,2
86,619,712,160,470,151,162,93,2
92,509,685,138,414,191,124,89,2
96,478,686,131,348,185,89,92,2
98,479,636,142,288,200,85,89,2
93,483,652,142,320,201,87,88,2
94,471,706,154,366,212,89,87,2
95,516,811,200,349,181,87,93,2
109,537,783,290,357,183,89,99,2
107,547,814,299,383,159,88,95,2
111,532,803,316,347,156,88,97,2
116,558,754,317,301,134,80,98,2
108,495,652,297,333,117,75,86,2
98,495,595,221,361,115,71,81,2
103,489,523,201,365,133,66,89,2
104,487,492,179,375,128,65,90,2
94,468,440,160,400,139,66,88,2
93,466,408,147,348,139,62,85,2
87,479,431,140,316,136,55,75,2
96,539,460,247,315,151,58,79,2
112,559,431,287,325,155,64,92,2
120,507,491,297,290,151,66,93,2
121,526,529,346,311,152,67,94,2
125,513,535,380,329,147,69,99,2
112,421,566,349,288,104,64,90,2
100,391,564,318,271,103,58,74,2
95,440,518,320,277,95,53,73,2
102,451,506,292,276,100,54,82,2
110,483,597,254,258,98,59,89,2
114,574,581,218,256,93,62,88,2
118,651,599,231,233,83,66,94,2
118,669,592,232,212,76,69,100,2
122,715,625,283,166,76,78,112,2
124,686,647,300,139,74,89,117,2
153,695,710,335,136,78,94,140,2
171,654,716,345,136,78,96,151,2
192,756,772,348,127,79,96,149,2
208,779,766,339,126,75,101,154,2
231,823,703,319,119,73,93,151,2
240,903,622,293,106,74,100,161,2
233,903,584,267,102,73,112,169,2
241,806,502,294,105,77,134,186,2
234,786,574,296,97,77,133,175,2
232,840,573,343,105,84,150,201,2
234,726,557,336,94,83,142,182,2
230,701,580,347,84,78,140,161,2
214,708,595,312,79,71,118,144,2
209,723,555,258,70,67,112,151,2
187,608,539,225,67,57,87,110,2
162,629,593,262,69,49,87,112,2
158,677,657,266,68,50,77,112,2
163,664,662,285,70,49,78,109,2
156,630,742,325,80,51,76,95,2
148,651,810,332,81,47,74,93,2
127,622,838,345,96,53,71,81,2
153,627,872,338,145,58,74,85,2
157,683,918,352,224,68,83,88,2
166,739,849,316,234,71,83,94,2
174,746,775,377,247,75,90,94,2
187,759,784,361,254,73,101,104,2
173,767,723,366,239,68,93,101,2
162,764,725,380,197,72,83,94,2
165,704,732,442,219,78,103,94,2
162,698,840,419,234,110,100,102,2
152,674,823,414,234,128,94,101,2
153,645,809,404,316,133,95,99,2
146,588,763,394,308,137,96,100,2
164,550,741,336,290,146,80,105,2
156,486,675,275,279,134,85,98,2
153,475,683,267,304,146,89,96,2
141,479,676,272,228,151,91,95,2
140,503,701,244,224,145,93,92,2
102,506,734,248,236,136,89,81,2
123,518,687,242,243,129,82,88,2
122,501,641,234,215,104,71,80,2
127,464,678,241,240,107,66,82,2
121,478,755,296,257,115,69,92,2
135,479,750,324,292,112,74,109,2
134,480,775,357,299,119,81,118,2
145,475,765,394,306,115,85,127,2
139,494,760,405,291,99,84,124,2
143,566,675,385,275,87,83,123,2
127,581,626,390,247,97,80,111,2
118,563,610,376,248,94,81,95,2
105,598,646,372,226,97,78,84,2
110,581,607,371,225,97,78,88,2
104,485,638,344,221,93,72,82,2
100,438,667,318,201,78,68,71,2
82,474,680,304,162,65,61,64,2
85,428,683,301,211,55,69,66,2
81,428,654,303,206,60,77,65,2
87,441,649,333,219,61,79,60,2
92,495,593,339,217,61,79,60,2
101,507,587,341,226,60,80,62,2
107,579,673,369,190,59,74,63,2
108,600,686,346,174,48,70,76,2
108,557,616,343,169,53,81,86,2
100,531,643,334,156,53,85,88,2
94,514,728,380,147,54,80,86,2
75,434,727,325,135,53,81,85,2
74,404,714,348,139,55,80,72,2
65,459,734,385,165,57,73,66,2
78,499,735,381,167,56,72,65,2
79,493,650,345,177,58,78,77,2
81,547,517,419,178,53,83,86,2
87,630,540,420,179,58,89,92,2
95,625,563,400,160,56,87,92,2
87,592,587,408,162,57,87,95,2
85,644,655,412,168,53,84,89,2
88,637,692,393,182,55,77,75,2
82,584,675,392,208,54,67,71,2
72,556,631,360,280,56,60,64,2
85,588,737,419,316,74,52,57,2
86,525,660,400,331,119,46,51,2
88,540,647,346,335,124,48,55,2
93,516,720,340,314,125,48,55,2
96,549,752,359,258,130,50,59,2
84,499,620,292,238,121,50,59,2
84,504,645,346,210,86,46,59,2
79,502,708,371,231,101,44,60,2
97,511,641,378,255,140,46,67,2
99,505,684,389,264,135,46,67,2
99,482,736,370,252,137,44,66,2
104,528,751,324,254,137,54,80,2
101,498,660,285,230,124,53,76,2
79,475,671,257,210,77,49,68,2
77,439,606,259,177,73,47,63,2
78,518,548,259,187,72,52,72,2
70,449,520,249,194,61,43,55,2
80,415,588,249,183,53,42,61,2
76,403,590,284,174,50,43,62,2
93,434,579,262,177,50,43,68,2
97,440,644,251,148,47,41,65,2
113,516,696,289,128,50,43,72,2
106,533,675,283,184,60,43,70,2
113,625,664,286,200,60,42,69,2
98,627,706,263,198,60,41,64,2
111,612,637,288,206,58,39,60,2
101,579,630,262,202,61,37,57,2
106,626,617,269,143,50,36,54,2
102,584,642,230,143,69,41,63,2
104,576,626,230,154,74,46,66,2
89,630,634,196,147,73,48,66,2
90,683,561,180,143,70,48,65,2
82,642,540,166,144,79,49,69,2
92,668,536,167,123,65,44,64,2
94,683,541,157,104,60,40,60,2
107,614,558,180,105,65,49,76,2
102,554,553,172,100,82,53,77,2
112,541,521,184,100,76,52,80,2
103,469,561,182,95,79,56,82,2
106,521,546,188,107,80,57,84,2
93,510,542,187,100,74,51,72,2
96,507,563,193,104,56,46,70,2
87,558,593,194,103,53,49,68,2
87,573,556,194,101,48,47,63,2
97,545,626,198,98,57,48,67,2
101,593,711,185,124,65,48,68,2
100,584,711,176,128,63,48,70,2
103,530,720,163,130,64,47,73,2
105,512,700,150,129,63,48,80,2
91,483,626,148,124,57,51,84,2
93,502,479,124,87,51,49,84,2
99,544,484,156,69,50,50,81,2
97,571,467,160,73,46,49,79,2
103,643,469,166,76,47,48,75,2
104,678,444,154,67,44,45,70,2
96,611,482,161,68,40,44,67,2
93,596,476,143,81,49,54,75,2
99,601,463,151,73,51,56,78,2
93,548,477,223,76,57,60,82,2
91,478,516,282,78,54,56,76,2
89,533,506,297,79,55,55,74,2
85,501,468,303,70,49,45,65,2
79,452,465,297,80,53,48,59,2
72,405,425,246,87,47,44,49,2
76,445,397,175,94,46,47,47,2
76,356,405,166,109,47,53,46,2
72,324,427,173,112,46,58,48,2
66,341,402,210,128,40,60,48,2
74,344,409,262,122,41,66,53,2
64,256,444,295,124,43,65,53,2
65,258,535,308,112,40,61,54,2
81,338,510,297,116,45,61,63,2
86,366,531,309,91,45,54,67,2
83,398,525,267,89,47,48,69,2
88,457,471,239,88,48,47,72,2
86,478,296,224,97,48,45,73,2
71,484,328,269,102,45,38,64,2
73,532,322,224,122,44,35,60,2
74,508,379,230,131,44,32,60,2
70,469,389,244,140,45,33,56,2
80,499,399,282,143,50,39,62,2
81,474,378,249,144,49,41,62,2
74,432,361,268,136,50,41,58,2
70,452,313,294,138,46,39,53,2
79,468,331,278,134,51,46,69,2
75,434,333,252,132,52,44,68,2
87,478,378,285,139,50,42,76,2
92,481,420,274,133,49,43,79,2
99,478,425,250,122,56,47,87,2
103,489,411,257,113,59,49,83,2
108,497,422,265,109,57,47,82,2
107,460,399,223,102,62,55,79,2
106,498,402,230,112,65,61,80,2
103,526,443,268,139,61,65,72,2
93,497,468,272,141,53,62,64,2
82,500,502,279,145,52,68,58,2
76,533,519,286,142,45,66,56,2
72,525,500,293,141,39,63,53,2
82,479,454,251,119,40,63,59,2
85,485,436,270,132,40,64,62,2
97,508,428,229,123,44,62,68,2
95,465,432,230,131,47,60,66,2
95,395,406,229,131,49,61,68,2
82,411,415,245,133,47,55,62,2
78,425,454,217,124,46,50,57,2
76,395,405,226,133,41,45,54,2
79,453,366,217,135,38,43,53,2
84,474,400,217,145,45,38,55,2
89,461,396,233,140,42,36,54,2
89,469,351,232,139,43,36,53,2
80,516,424,257,174,55,37,47,2
75,462,510,301,178,59,35,51,2
67,456,580,288,180,59,38,47,2
58,487,640,257,182,60,36,47,2
56,560,675,287,181,62,37,51,2
62,524,652,263,141,70,36,56,2
62,528,659,213,120,85,37,56,2
61,511,630,225,110,102,35,57,2
66,493,580,224,108,121,37,58,2
67,414,591,190,105,122,39,59,2
57,377,572,184,104,114,38,52,2
59,433,521,169,103,103,36,48,2
60,430,530,153,77,82,34,44,2
63,460,541,156,75,52,34,45,2
66,436,482,185,64,51,30,41,2
72,463,478,202,63,49,33,49,2
75,402,454,219,59,46,37,53,2
73,399,401,218,55,44,35,51,2
73,371,372,219,52,42,32,48,2
69,394,388,199,57,39,32,45,2
77,428,470,186,63,48,39,60,2
83,482,482,180,72,56,46,70,2
91,554,475,182,78,61,51,76,2
97,620,471,177,76,60,52,77,2
99,697,517,152,73,64,54,79,2
91,687,499,142,71,64,50,69,2
82,696,513,131,62,58,42,56,2
76,690,622,145,60,54,40,54,2
69,640,668,178,68,56,43,59,2
73,568,621,182,71,54,43,60,2
71,568,602,179,63,43,40,55,2
74,602,584,179,63,42,40,56,2
80,558,459,171,63,42,40,58,2
77,566,422,145,54,38,36,50,2
73,537,451,145,50,34,36,51,2
72,549,443,139,49,37,37,51,2
67,456,434,141,50,39,37,55,2
61,446,484,125,44,37,36,51,2
68,408,470,118,46,40,36,55,2
68,406,447,105,46,38,36,55,2
72,370,456,119,54,43,43,62,2
71,356,453,102,50,40,42,56,2
72,380,408,114,53,43,45,60,2
74,387,401,130,54,43,48,59,2
77,392,483,158,69,52,52,62,2
79,389,515,179,71,49,48,58,2
89,411,544,189,73,53,50,64,2
86,362,570,194,76,52,47,59,2
85,441,649,182,76,51,44,58,2
87,506,601,160,70,43,42,57,2
89,576,563,164,73,48,47,61,2
85,685,547,167,81,66,46,58,2
86,720,580,170,116,76,54,70,2
87,755,630,214,226,93,58,80,2
119,800,738,235,269,121,73,107,2
131,825,812,258,337,136,76,112,2
197,879,904,300,373,144,100,148,2
218,958,910,307,377,151,105,159,2
231,1006,981,339,338,162,113,167,2
229,960,990,333,319,157,110,162,2
259,959,1069,332,277,158,124,192,2
231,849,1017,298,242,153,113,179,2
223,852,1053,332,239,154,115,178,2
218,736,948,294,223,137,112,182,2
212,761,944,307,212,129,115,186,2
179,766,882,297,187,124,109,165,2
161,780,855,298,170,115,103,155,2
145,652,769,251,149,98,94,141,2
150,719,736,245,167,98,92,137,2
146,706,670,230,158,92,87,126,2
141,664,557,215,137,76,73,114,2
139,666,601,208,129,72,71,110,2
149,684,655,217,129,76,72,113,2
130,622,679,228,113,69,65,100,2
123,566,638,237,121,67,61,96,2
123,599,689,251,129,67,64,100,2
134,569,779,263,140,69,72,112,2
120,549,818,260,176,72,69,109,2
124,585,809,232,219,88,68,104,2
127,647,857,221,233,104,68,101,2
126,603,817,201,369,128,76,99,2
107,571,720,177,376,138,68,83,2
109,576,713,165,382,136,68,80,2
105,522,692,166,362,130,69,79,2
102,448,616,161,358,126,77,83,2
89,431,616,154,241,115,67,73,2
108,430,645,169,257,121,74,87,2
103,433,544,162,313,125,73,87,2
116,482,569,167,331,129,82,95,2
112,484,579,181,343,130,81,99,2
106,445,573,172,337,121,90,95,2
94,471,499,156,361,106,88,85,2
103,474,583,164,297,115,98,92,2
93,407,618,161,275,111,104,95,2
94,421,673,140,266,100,97,86,2
94,459,672,145,248,94,93,89,2
88,502,672,164,273,218,92,86,2
83,509,614,169,279,231,83,80,2
79,515,614,161,305,234,66,69,2
85,513,592,176,335,300,73,68,2
83,505,597,180,357,397,63,65,2
87,452,631,293,320,361,62,63,2
87,429,624,391,327,530,74,63,2
84,403,543,401,318,577,78,61,2
75,436,488,407,274,550,75,60,2
75,448,601,409,247,486,75,59,2
99,514,625,370,211,476,76,71,2
115,525,655,319,186,270,70,83,2
134,532,685,330,155,149,72,96,2
146,475,709,370,188,132,70,105,2
152,453,641,375,206,128,73,108,2
134,354,579,369,218,118,71,100,2
138,433,581,333,226,94,69,96,2
120,460,555,327,220,66,59,83,2
114,549,525,290,211,60,54,75,2
110,565,521,294,204,57,54,74,2
114,600,548,266,183,55,59,79,2
99,621,487,291,168,47,52,72,2
100,621,549,314,175,39,59,73,2
99,564,571,308,157,43,63,77,2
96,527,554,315,141,43,69,75,2
90,580,546,334,138,44,63,69,2
85,578,619,302,129,42,65,64,2
86,601,552,286,121,42,61,62,2
75,596,506,336,102,43,67,52,2
76,672,479,367,97,42,60,55,2
86,686,500,342,92,44,68,60,2
93,706,464,358,90,48,73,65,2
91,689,521,375,101,47,73,69,2
88,729,546,333,101,44,71,66,2
109,713,553,290,98,46,72,80,2
105,639,511,314,108,47,71,87,2
106,623,535,302,108,54,76,86,2
113,627,482,292,100,61,81,92,2
116,640,469,327,100,60,78,95,2
100,610,479,334,101,59,81,84,2
98,619,466,321,91,59,77,75,2
95,553,402,365,96,49,73,79,2
97,546,420,350,96,44,71,77,2
95,476,430,349,110,48,77,80,2
96,447,561,376,108,48,78,84,2
99,441,600,409,123,46,79,85,2
91,489,615,440,148,50,82,86,2
82,470,646,443,145,51,84,85,2
82,495,728,425,154,51,82,83,2
86,518,647,438,202,53,79,82,2
83,517,675,419,215,59,79,83,2
92,505,758,426,217,61,70,78,2
97,528,860,448,318,75,67,78,2
97,503,910,462,336,76,60,73,2
94,480,883,431,321,78,62,71,2
98,527,877,414,310,75,61,72,2
89,495,857,343,331,77,62,70,2
87,510,755,327,267,67,61,67,2
83,520,604,300,248,64,60,66,2
80,527,657,292,238,64,55,62,2
91,606,694,311,247,65,49,54,2
94,588,618,339,201,61,44,53,2
96,590,678,337,173,61,38,46,2
101,594,724,330,174,64,36,49,2
102,593,755,372,188,77,37,49,2
89,479,770,404,263,106,37,50,2
84,552,802,376,262,104,38,48,2
78,546,789,354,259,103,39,50,2
75,631,775,357,248,106,40,51,2
73,646,725,318,235,95,42,53,2
70,655,705,262,132,58,40,51,2
71,580,660,252,130,63,41,54,2
89,566,589,265,138,132,44,58,2
88,528,553,259,148,140,42,56,2
103,566,609,249,154,148,40,54,2
117,576,658,262,153,150,40,56,2
119,615,710,259,160,155,38,53,2
119,594,717,295,145,106,39,55,2
120,569,717,287,129,95,39,54,2
107,554,668,283,117,85,39,54,2
93,510,596,347,124,91,43,58,2
100,566,578,359,112,80,46,63,2
90,560,599,313,110,75,46,64,2
98,577,655,339,116,70,49,69,2
99,545,688,360,119,65,50,71,2
100,595,683,277,109,54,49,70,2
117,553,767,271,119,62,59,82,2
116,642,773,285,119,61,60,81,2
119,701,816,269,117,64,64,84,2
124,757,863,241,116,67,65,88,2
126,732,882,241,110,65,64,87,2
116,743,876,260,101,62,58,80,2
125,682,878,256,101,69,65,96,2
136,600,825,256,100,70,64,98,2
147,658,807,246,99,71,65,103,2
150,719,748,249,101,73,67,107,2
149,738,694,217,98,72,64,107,2
146,783,698,212,96,68,60,101,2
132,900,728,228,95,66,58,98,2
124,826,698,265,101,69,60,99,2
124,801,750,291,100,69,64,105,2
119,758,728,288,95,64,62,101,2
112,795,718,282,89,59,58,91,2
108,643,666,246,82,56,56,87,2
100,645,613,219,74,50,53,78,2
106,641,580,180,78,52,50,72,2
110,654,534,181,87,55,52,75,2
112,546,521,179,86,56,50,79,2
113,574,504,179,99,56,53,85,2
111,522,510,150,100,52,54,84,2
112,498,512,140,94,54,58,81,2
106,456,619,124,126,55,58,80,2
116,479,651,129,141,55,79,87,2
122,425,698,152,173,58,81,88,2
119,459,740,203,283,70,78,88,2
108,459,730,220,304,71,76,85,2
107,493,735,223,295,66,72,81,2
112,553,705,221,302,79,71,81,2
111,602,658,213,323,119,112,82,2
118,663,697,178,247,130,146,91,2
135,677,703,172,264,141,156,110,2
150,652,609,185,293,150,162,135,2
134,576,564,189,296,147,155,128,2
124,523,545,183,259,126,137,125,2
116,412,460,176,278,126,106,119,2
98,411,475,175,315,116,91,101,2
72,436,450,165,307,111,81,66,2
78,452,622,161,310,109,83,72,2
91,482,675,196,327,106,65,78,2
99,512,653,192,310,89,61,83,2
99,502,638,180,241,85,58,84,2
96,509,655,182,210,78,58,85,2
101,563,532,181,185,72,58,84,2
94,561,523,151,140,57,57,77,2
104,569,567,280,122,53,58,84,2
107,526,580,295,111,57,62,90,2
111,562,599,313,129,54,60,90,2
123,580,643,352,152,61,69,99,2
142,601,711,378,167,72,75,108,2
140,586,724,304,164,77,78,105,2
153,660,781,307,165,79,88,113,2
161,617,767,294,154,80,94,121,2
153,637,752,245,123,79,87,116,2
149,659,658,255,111,73,87,115,2
151,664,612,247,107,69,87,123,2
130,618,521,254,105,66,87,110,2
154,675,632,257,113,70,94,118,2
158,630,647,301,118,71,104,120,2
161,624,667,318,111,71,112,118,2
169,623,668,341,112,77,128,118,2
172,631,649,324,101,72,122,124,2
147,560,540,393,90,68,120,116,2
144,556,505,368,87,68,114,112,2
132,574,493,379,118,68,113,107,2
111,554,543,376,131,61,90,90,2
113,612,675,390,137,68,96,86,2
120,675,692,373,157,69,91,86,2
117,634,657,405,166,65,88,84,2
117,606,680,349,147,61,71,81,2
118,693,671,339,148,57,74,84,2
143,693,575,403,149,58,68,97,2
135,644,555,354,125,55,63,89,2
137,717,600,317,127,57,67,91,2
135,740,572,327,147,60,73,89,2
137,721,736,341,133,60,70,87,2
117,681,791,286,133,55,71,81,2
118,682,797,285,155,54,73,88,2
113,698,847,291,155,60,75,94,2
116,651,918,288,149,58,74,100,2
107,625,787,281,155,59,72,101,2
95,676,757,236,152,57,65,88,2
89,731,816,230,133,56,57,78,2
89,660,738,276,118,48,46,68,2
92,719,678,273,127,54,52,74,2
94,680,631,256,122,55,56,76,2
94,590,651,278,139,59,57,78,2
94,511,571,286,147,64,60,81,2
94,517,598,287,155,65,60,80,2
88,418,585,299,144,66,58,77,2
93,432,619,303,142,64,53,75,2
93,504,597,290,135,64,52,73,2
97,490,624,305,136,60,49,73,2
101,539,644,274,134,64,53,78,2
96,611,677,276,141,56,47,69,2
93,645,658,268,140,58,46,68,2
92,593,584,257,138,57,48,68,2
86,609,624,239,130,56,48,65,2
82,586,616,205,120,51,42,64,2
82,507,611,210,100,49,41,64,2
102,501,675,283,140,53,44,69,2
99,490,696,288,137,50,40,66,2
108,514,639,282,147,55,45,74,2
103,484,642,297,153,57,42,65,2
103,536,611,276,152,56,41,62,2
90,494,605,199,119,54,37,58,2
94,596,658,188,129,55,38,60,2
91,587,673,210,132,53,36,58,2
98,631,693,193,147,51,42,65,2
124,625,685,202,159,58,56,86,2
127,640,646,240,175,62,60,91,2
132,540,643,264,187,63,61,94,2
137,529,674,247,174,62,60,92,2
133,489,710,255,158,60,58,92,2
108,497,769,249,163,55,47,75,2
117,551,808,256,175,68,59,79,2
148,642,801,283,177,80,69,92,2
181,809,890,342,209,103,99,120,2
204,860,891,376,239,106,105,126,2
210,879,888,413,248,111,110,131,2
204,831,826,412,233,104,106,128,2
196,845,799,391,223,99,108,129,2
173,726,638,330,195,79,87,116,2
153,640,531,289,160,79,89,114,2
151,584,491,243,137,74,86,111,2
160,580,562,228,124,73,87,117,2
143,499,550,227,122,68,80,104,2
141,481,615,274,135,68,79,97,2
161,498,659,313,156,75,78,109,2
153,474,667,321,184,74,77,106,2
142,507,610,328,197,79,77,100,2
142,525,664,321,199,79,79,107,2
137,511,616,322,205,78,78,114,2
109,568,670,283,193,70,74,100,2
120,569,680,276,163,71,77,102,2
131,566,760,273,201,63,73,102,2
140,586,780,318,217,67,76,101,2
136,556,795,302,223,75,76,91,2
137,651,732,371,218,75,75,89,2
130,649,713,361,227,75,70,87,2
115,685,684,357,182,78,69,85,2
117,662,613,322,153,73,61,82,2
115,659,647,310,124,63,55,76,2
114,502,684,270,126,57,48,72,2
121,515,676,274,104,55,51,76,2
123,496,748,265,103,48,52,76,2
118,539,763,283,146,58,51,75,2
115,592,721,293,149,59,51,73,2
121,629,753,319,158,65,54,75,2
116,618,769,311,156,63,51,71,2
121,647,679,317,161,66,57,73,2
126,612,708,301,144,62,59,81,2
135,576,773,296,141,65,61,85,2
125,527,683,227,133,59,57,81,2
131,586,681,248,135,63,58,80,2
125,512,714,270,135,58,49,75,2
110,493,702,270,107,52,44,61,2
99,535,612,269,107,47,38,54,2
101,586,628,277,111,47,38,54,2
94,541,579,295,107,42,43,56,2
99,541,554,257,113,48,46,59,2
98,555,480,271,115,47,44,56,2
96,512,568,267,109,48,47,57,2
92,474,582,256,97,48,46,57,2
97,506,568,269,100,50,44,56,2
93,555,577,282,87,45,40,52,2
101,595,583,292,112,45,42,57,2
118,628,546,291,117,51,45,68,2
121,616,533,296,126,51,45,67,2
115,596,551,254,135,49,43,67,2
118,578,557,253,132,52,46,72,2
120,501,563,232,116,52,49,77,2
105,502,532,242,113,46,44,66,2
118,534,608,270,118,47,44,68,2
118,599,582,266,108,46,45,67,2
115,585,561,269,122,45,46,65,2
111,679,598,255,118,45,45,64,2
122,699,599,246,120,58,57,87,2
118,710,521,204,104,61,62,92,2
122,636,606,243,101,62,62,96,2
123,632,580,230,93,67,65,102,2
122,561,586,244,105,73,68,104,2
106,494,584,258,99,65,62,88,2
114,545,584,256,99,66,63,91,2
112,579,537,235,105,70,65,91,2
128,591,567,239,100,68,64,95,2
123,741,565,229,86,59,58,87,2
123,736,687,210,103,60,54,85,2
113,720,695,228,101,60,52,80,2
116,696,721,204,95,54,48,76,2
95,670,702,194,90,50,42,58,2
93,484,682,190,98,50,42,59,2
101,467,544,179,77,48,45,64,2
95,455,537,142,94,41,41,62,2
86,488,533,138,94,40,41,62,2
79,507,556,139,95,38,41,62,2
83,494,558,140,101,43,46,69,2
78,517,574,148,99,40,44,63,2
81,435,604,158,78,38,39,58,2
98,426,585,167,77,42,42,71,2
106,441,568,166,83,48,48,81,2
111,425,543,169,72,47,47,78,2
117,454,588,169,79,53,50,85,2
128,560,540,170,83,56,54,91,2
139,590,543,177,83,55,55,90,2
149,587,552,178,81,53,51,87,2
156,614,660,173,79,55,57,96,2
156,631,631,176,76,54,60,97,2
151,574,637,177,76,53,60,95,2
138,533,596,169,79,54,61,92,2
129,541,590,157,75,52,60,89,2
114,507,461,136,70,48,53,78,2
105,444,466,136,67,43,47,72,2
97,424,486,142,64,44,47,76,2
91,400,506,144,60,43,46,72,2
79,346,466,156,62,44,47,74,2
79,360,469,160,66,45,46,74,2
76,366,421,144,78,45,47,72,2
74,334,367,120,79,45,49,64,2
66,351,385,100,85,41,49,61,2
66,351,449,93,97,40,49,55,2
66,333,479,109,113,46,54,58,2
73,336,514,116,116,49,54,64,2
70,323,527,131,120,51,59,65,2
68,355,503,135,121,51,56,65,2
68,385,459,125,111,51,55,66,2
61,377,422,105,93,44,50,58,2
63,363,392,158,83,42,49,56,2
71,360,372,149,76,38,38,54,2
81,320,387,167,63,40,38,54,2
84,310,384,187,64,42,47,56,2
87,368,424,193,62,43,51,58,2
90,368,534,163,57,46,55,61,2
84,392,588,278,67,50,55,61,2
83,405,563,299,69,49,56,62,2
81,392,625,307,76,48,48,58,2
83,400,694,342,84,51,49,61,2
77,424,633,360,91,48,50,60,2
90,475,600,324,92,47,54,68,2
87,467,638,324,111,46,53,68,2
88,488,574,316,109,46,54,70,2
89,479,485,293,110,43,53,70,2
87,534,547,298,114,47,53,66,2
81,481,557,254,109,43,50,58,2
86,545,557,240,93,42,51,63,2
87,557,633,235,108,40,52,69,2
88,547,661,239,115,41,54,68,2
89,491,624,199,105,34,49,63,2
88,505,615,207,118,41,53,67,2
81,436,667,219,121,43,53,61,2
80,434,621,258,113,45,53,57,2
82,481,687,257,106,45,53,60,2
84,465,709,279,120,48,53,68,2
85,481,726,282,116,39,49,64,2
82,489,675,266,114,41,52,63,2
81,471,684,269,115,40,51,59,2
86,466,575,274,117,39,48,61,2
84,475,554,260,153,38,47,56,2
84,517,543,262,150,39,52,64,2
90,551,584,329,166,40,51,83,2
122,637,616,332,165,46,62,97,2
118,621,690,404,173,50,74,100,2
128,683,748,446,154,57,83,109,2
137,655,771,477,164,62,91,115,2
143,701,745,466,155,62,98,113,2
122,633,707,458,154,62,94,104,2
128,609,649,394,143,61,92,108,2
124,566,605,355,121,54,91,99,2
134,554,591,366,123,64,94,99,2
139,470,584,339,145,65,95,99,2
144,522,615,329,192,69,97,104,2
147,555,623,334,193,69,96,101,2
146,523,589,333,191,69,95,108,2
131,552,595,283,182,57,83,97,2
125,582,617,279,159,56,75,91,2
111,568,613,270,107,46,68,82,2
98,601,609,281,109,43,63,73,2
85,591,621,282,113,44,55,59,2
76,556,613,273,108,41,49,56,2
64,549,649,261,115,39,45,46,2
72,547,657,272,105,43,46,51,2
71,476,658,258,101,45,42,55,2
71,524,656,251,97,49,40,53,2
83,604,652,258,95,60,43,60,2
87,608,619,252,105,83,46,63,2
97,609,620,248,107,90,47,64,2
109,624,618,225,109,109,51,63,2
158,636,624,214,107,109,64,87,2
172,602,714,217,108,105,68,98,2
174,560,724,289,91,114,70,101,2
194,570,714,301,98,118,73,102,2
196,615,796,327,121,112,75,104,2
186,594,834,342,125,114,70,92,2
172,542,780,379,131,116,71,83,2
170,557,753,336,132,91,75,86,2
152,536,829,348,120,76,75,89,2
144,534,746,331,92,59,72,87,2
111,538,724,320,89,50,74,91,2
112,538,704,276,87,49,68,85,2
110,542,746,292,91,51,65,84,2
89,497,628,264,107,55,71,79,2
89,407,643,263,106,52,72,79,2
90,419,620,266,114,55,73,71,2
86,490,664,247,114,57,75,70,2
84,492,640,271,125,61,74,62,2
83,564,644,269,113,61,66,64,2
87,580,634,266,132,70,67,71,2
87,533,630,254,124,75,60,73,2
105,501,626,277,123,72,58,72,2
109,519,621,223,105,68,58,79,2
121,499,697,238,154,74,59,86,2
120,522,751,239,174,83,59,86,2
137,640,855,307,232,88,65,91,2
134,627,820,308,233,89,68,98,2
159,664,820,372,269,97,90,108,2
168,694,847,394,261,102,99,109,2
172,709,829,394,244,94,100,106,2
187,687,741,383,209,100,113,124,2
215,721,788,366,246,105,126,147,2
206,711,816,308,237,133,125,138,2
199,792,786,293,228,128,125,136,2
202,800,854,303,246,132,131,137,2
183,787,907,269,245,124,118,121,2
151,791,900,264,216,119,108,87,2
176,841,922,262,200,89,103,108,2
179,755,907,243,196,89,95,111,2
177,733,828,281,184,81,86,112,2
174,721,757,270,162,76,88,109,2
166,698,729,311,150,73,79,108,2
159,615,662,330,161,75,71,114,2
150,576,594,325,161,70,68,107,2
142,564,584,278,145,63,68,101,2
134,537,553,279,147,60,62,95,2
140,535,543,242,150,69,65,97,2
99,478,588,214,124,55,55,60,2
91,450,613,205,109,53,53,55,2
94,431,675,247,137,57,50,61,2
107,401,662,245,150,61,57,82,2
116,437,637,254,145,62,63,87,2
120,449,592,265,144,63,62,89,2
130,455,583,254,160,64,63,95,2
134,484,549,231,155,61,62,97,2
123,468,553,247,154,57,53,81,2
129,528,620,239,155,52,53,88,2
153,548,595,244,153,54,60,102,2
148,533,584,247,143,55,61,100,2
145,494,585,269,121,57,64,98,2
145,519,606,260,120,56,65,100,2
124,396,586,266,113,53,56,85,2
83,392,662,248,114,43,49,64,2
83,401,737,259,122,39,51,60,2
75,404,711,228,124,37,50,55,2
77,393,726,222,141,41,52,56,2
77,426,776,238,142,41,54,56,2
76,497,747,232,136,40,56,55,2
69,521,729,237,136,43,49,53,2
73,531,759,237,148,49,53,61,2
74,535,733,252,128,50,50,58,2
89,510,720,226,142,52,49,60,2
87,411,673,218,153,52,44,57,2
106,408,619,203,150,57,55,73,2
115,398,564,207,148,59,53,73,2
123,422,563,186,160,59,60,79,2
112,405,456,188,151,57,62,77,2
114,415,546,241,148,57,63,79,2
109,399,551,242,155,53,58,69,2
97,435,540,240,164,46,53,61,2
82,381,523,232,149,40,44,50,2
87,434,636,237,162,49,42,56,2
88,427,582,217,163,50,43,55,2
74,425,551,255,153,49,36,52,2
70,397,574,249,145,52,38,50,2
106,433,570,255,160,54,45,73,2
111,412,454,242,142,46,44,73,2
116,407,482,229,143,44,42,74,2
115,422,580,215,143,46,55,79,2
118,421,566,210,131,40,54,83,2
101,412,593,210,121,41,51,69,2
91,428,626,235,118,41,56,67,2
87,473,656,255,123,41,56,65,2
89,470,630,228,137,38,48,58,2
86,511,742,246,146,42,46,52,2
73,511,741,240,146,40,45,49,2
70,486,768,237,160,49,42,47,2
66,463,732,249,152,55,43,45,2
62,540,748,250,136,54,42,47,2
71,504,609,232,122,57,46,53,2
71,506,637,247,124,59,46,52,2
73,538,564,245,111,51,45,50,2
77,527,530,202,107,49,45,54,2
79,438,480,224,102,49,43,51,2
73,474,523,224,98,43,41,47,2
72,527,504,241,117,45,42,50,2
71,470,507,227,114,47,40,50,2
79,549,593,279,115,42,40,49,2
77,545,568,264,125,49,42,52,2
82,523,539,270,137,50,42,58,2
84,452,559,251,106,47,41,56,2
92,508,584,263,107,47,49,61,2
83,441,545,239,102,45,48,57,2
83,423,589,251,91,40,46,56,2
78,449,632,269,113,41,47,49,2
75,491,629,267,116,42,48,48,2
65,432,583,291,126,39,40,42,2
64,436,580,281,132,43,42,52,2
83,490,537,292,159,47,48,67,2
90,496,540,270,151,52,51,74,2
103,467,496,315,154,53,53,78,2
109,526,512,296,148,54,57,83,2
115,512,472,287,149,55,63,84,2
105,486,486,289,123,52,59,77,2
103,500,438,308,122,45,60,72,2
99,519,439,257,118,44,62,75,2
102,502,466,262,127,48,69,76,2
94,529,454,286,121,45,62,71,2
85,517,515,274,116,42,63,67,2
84,468,563,297,101,44,66,66,2
92,464,583,332,127,46,75,75,2
94,451,600,338,149,52,70,70,2
111,485,664,361,168,59,71,81,2
120,498,709,362,175,61,72,85,2
120,525,715,353,179,62,70,89,2
107,611,715,375,169,61,61,76,2
104,615,746,371,158,55,56,75,2
88,591,756,369,151,48,60,67,2
82,585,686,418,163,53,61,64,2
84,571,677,463,161,53,58,60,2
96,481,658,431,156,52,57,65,2
92,473,725,456,146,50,65,65,2
93,437,671,429,140,50,62,62,2
96,467,702,397,131,49,61,61,2
96,544,728,352,128,47,64,62,2
92,515,729,370,125,49,66,61,2
98,537,657,364,122,50,64,63,2
110,527,633,358,124,52,63,67,2
110,498,618,338,116,52,63,66,2
126,460,658,377,118,52,66,70,2
125,459,687,394,131,54,67,70,2
120,443,645,369,131,50,62,74,2
106,464,675,409,121,46,63,75,2
108,463,668,413,124,50,68,79,2
92,392,549,403,116,52,62,80,2
90,390,550,374,100,48,63,77,2
92,376,602,370,90,49,68,76,2
95,384,640,336,110,51,67,72,2
86,423,649,353,114,45,62,69,2
77,424,697,318,126,41,62,65,2
77,442,646,312,131,47,58,68,2
70,442,599,316,137,49,52,59,2
62,452,618,326,128,49,53,55,2
57,476,676,301,131,53,53,54,2
58,503,654,318,129,59,55,54,2
57,487,669,330,125,59,56,59,2
66,495,637,340,142,59,53,64,2
71,440,621,341,138,57,50,65,2
70,382,531,379,149,55,48,64,2
70,405,515,346,140,48,42,59,2
74,466,546,371,160,47,41,60,2
79,427,548,359,143,44,45,80,2
89,520,489,361,138,47,47,91,2
92,513,592,320,119,44,45,92,2
107,471,657,344,121,46,52,104,2
106,415,674,311,95,40,54,100,2
96,468,682,328,100,40,53,83,2
92,390,695,321,121,40,52,73,2
91,420,640,315,124,44,50,69,2
93,434,609,308,120,43,46,56,2
91,461,638,294,116,48,42,62,2
92,498,641,262,107,49,40,62,2
84,502,609,271,89,47,39,59,2
84,507,608,296,91,44,44,63,2
64,532,586,276,101,42,43,60,2
70,535,478,268,99,36,41,51,2
73,485,527,284,99,37,41,51,2
84,502,555,340,115,46,46,59,2
87,474,510,321,106,46,43,59,2
91,467,555,322,126,48,45,62,2
88,437,601,325,132,47,42,59,2
91,447,563,308,133,46,40,58,2
82,497,536,219,118,37,36,52,2
86,537,575,227,131,45,38,54,2
85,552,514,274,119,45,38,52,2
91,569,498,290,125,49,44,59,2
95,567,513,310,130,49,43,59,2
101,551,585,336,132,53,48,64,2
104,506,635,327,117,46,46,63,2
107,451,658,325,104,47,44,62,2
102,448,662,314,90,47,43,64,2
97,456,648,313,91,48,44,65,2
90,389,656,269,108,43,40,59,2
83,417,596,292,111,43,41,56,2
74,425,589,255,111,40,45,58,2
74,411,553,246,119,49,137,111,2
78,417,554,239,122,62,216,158,2
81,438,537,264,104,66,241,176,2
81,435,520,241,104,71,248,183,2
88,450,504,287,111,75,250,184,2
99,543,509,360,111,71,216,163,2
104,525,497,359,112,62,142,126,2
108,532,455,366,118,60,95,107,2
109,554,477,374,118,57,85,97,2
101,552,554,340,127,55,80,93,2
87,460,604,318,137,60,78,83,2
75,429,634,357,135,61,75,74,2
66,473,648,401,132,59,76,63,2
61,464,658,423,133,57,70,60,2
76,441,594,434,138,63,76,76,2
92,471,621,442,134,59,76,81,2
90,475,656,432,160,62,82,79,2
97,430,635,401,165,65,88,84,2
102,420,659,382,180,69,87,90,2
111,457,690,397,176,68,97,98,2
113,521,701,391,177,66,103,99,2
127,580,652,373,160,67,104,112,2
144,572,663,388,161,73,109,126,2
139,579,644,381,145,70,108,125,2
127,600,674,384,150,68,95,111,2
117,524,630,351,143,70,107,110,2
108,483,682,406,133,68,100,102,2
77,485,735,379,134,61,90,79,2
87,549,766,406,144,64,95,73,2
83,511,766,382,132,62,95,72,2
93,544,803,397,136,63,73,67,2
89,547,787,337,139,58,66,56,2
93,577,861,348,137,56,62,59,2
86,542,798,319,129,55,56,69,2
90,552,733,302,141,49,52,67,2
94,536,725,289,136,47,51,69,2
112,584,709,277,137,50,54,80,2
117,573,546,258,140,52,57,86,2
135,593,558,248,141,49,51,79,2
143,618,554,235,127,52,54,82,2
134,665,504,205,117,47,53,77,2
118,656,566,217,115,48,54,67,2
112,635,610,230,109,47,52,59,2
93,604,645,252,105,47,51,54,2
77,561,658,281,107,47,46,48,2
74,523,659,300,106,47,46,47,2
77,463,646,283,101,49,50,53,2
86,473,637,273,95,49,49,62,2
88,515,639,303,93,50,53,66,2
90,524,669,296,83,51,56,69,2
91,530,707,288,88,52,54,71,2
100,567,664,292,95,50,46,70,2
97,581,652,291,90,47,43,61,2
114,547,668,277,92,46,42,62,2
130,569,639,265,92,49,43,66,2
130,542,594,278,111,51,46,67,2
131,520,611,279,105,49,46,69,2
132,517,625,267,122,48,45,70,2
125,503,552,222,117,50,46,73,2
107,511,610,258,129,43,42,67,2
112,581,658,278,134,49,46,71,2
103,584,712,276,131,47,45,64,2
98,579,677,284,119,49,47,64,2
91,576,705,275,119,49,48,64,2
91,566,662,246,105,53,54,67,2
96,574,704,209,73,48,53,70,2
102,581,618,244,76,50,52,73,2
99,583,629,229,80,51,52,74,2
95,572,608,228,80,49,50,68,2
95,536,603,222,76,45,46,65,2
88,444,473,199,82,43,45,68,2
92,407,450,152,83,51,52,75,2
92,362,410,145,79,49,51,72,2
87,311,374,133,76,46,50,71,2
88,369,363,122,73,46,57,72,2
85,326,340,176,65,47,57,64,2
73,337,397,198,65,44,56,55,2
78,356,405,199,68,45,60,61,2
83,379,445,224,71,49,67,67,2
92,310,453,232,76,53,63,72,2
87,309,484,231,75,55,66,72,2
87,290,476,237,71,50,73,73,2
84,275,502,260,66,51,73,71,2
85,300,462,251,94,50,71,68,2
70,347,485,250,105,45,71,61,2
68,363,519,240,109,45,76,62,2
73,378,501,226,108,45,66,59,2
73,364,471,203,109,46,62,57,2
66,317,472,189,86,46,56,56,2
76,307,432,181,76,49,53,63,2
76,340,378,148,73,45,38,59,2
70,363,410,118,79,44,39,58,2
73,369,396,108,90,40,44,58,2
75,428,416,160,91,39,46,61,2
69,404,407,225,99,41,51,53,2
73,399,439,243,104,44,52,55,2
70,378,392,272,99,45,55,54,2
89,409,414,276,86,48,58,68,2
90,354,407,256,90,46,55,64,2
87,376,429,197,78,42,52,64,2
81,380,470,193,66,41,56,64,2
82,376,518,228,86,39,53,63,2
74,364,513,228,91,36,47,53,2
81,418,528,235,113,37,48,57,2
85,395,547,247,114,37,48,57,2
87,371,477,268,120,37,42,55,2
98,380,437,220,110,40,41,60,2
87,382,445,221,105,39,41,55,2
79,354,450,209,83,39,41,52,2
77,365,429,267,80,37,40,52,2
105,391,462,271,88,49,49,72,2
97,416,468,268,90,49,49,66,2
103,409,453,275,119,49,48,70,2
103,445,413,304,120,51,49,68,2
114,479,469,290,118,50,50,75,2
90,474,445,262,112,39,44,59,2
91,431,475,304,114,39,48,62,2
85,430,488,316,89,39,50,58,2
95,401,555,298,82,40,56,71,2
79,355,556,323,93,43,55,65,2
83,426,582,321,90,44,60,72,2
84,442,563,307,85,46,55,71,2
88,474,597,302,90,46,55,76,2
76,493,585,314,92,45,50,71,2
81,506,539,262,82,44,51,68,2
78,433,548,301,98,41,45,61,2
75,459,607,332,109,40,46,59,2
71,407,616,348,114,42,53,56,2
69,363,652,366,109,40,58,52,2
70,381,652,380,118,42,58,54,2
65,363,636,361,103,41,57,49,2
67,348,609,308,109,40,59,55,2
67,408,632,299,101,40,54,55,2
72,401,567,293,106,44,49,57,2
66,405,604,267,104,40,44,55,2
78,484,707,259,104,41,44,60,2
75,480,713,252,82,40,40,54,2
76,486,699,235,76,37,38,50,2
82,497,714,239,77,33,35,43,2
94,486,726,240,70,37,38,49,2
90,427,632,229,67,36,33,46,2
96,518,588,274,72,37,35,52,2
104,540,540,262,72,38,37,58,2
103,546,590,249,69,40,40,62,2
98,631,536,239,64,38,37,60,2
95,629,580,237,65,38,37,60,2
98,635,646,212,62,37,36,58,2
88,585,638,209,62,34,34,55,2
101,611,657,199,66,38,36,64,2
107,547,666,222,90,44,42,69,2
120,602,602,220,128,48,45,70,2
116,541,581,204,134,49,48,70,2
130,589,621,214,138,55,55,81,2
133,624,629,196,139,54,55,79,2
126,593,705,179,130,50,52,75,2
138,594,758,188,99,51,54,85,2
141,584,780,199,110,53,55,90,2
142,615,827,203,112,50,51,81,2
130,555,814,213,108,54,50,79,2
140,592,790,208,104,56,52,81,2
121,608,751,206,102,54,50,69,2
128,644,723,202,83,53,47,67,2
124,637,719,192,76,53,47,68,2
127,679,651,173,72,48,46,67,2
151,716,705,203,88,56,55,86,2
158,718,735,206,87,56,55,90,2
150,701,704,184,80,56,54,91,2
145,647,613,180,78,55,52,87,2
141,588,627,171,74,52,52,87,2
108,567,526,142,61,50,42,68,2
105,552,471,122,55,48,44,67,2
105,528,527,132,56,46,47,64,2
106,553,546,127,84,48,47,66,2
108,548,556,132,95,48,47,65,2
112,578,526,129,91,46,48,66,2
103,553,581,152,96,49,46,64,2
126,631,538,160,121,62,61,86,2
123,596,513,165,107,60,62,86,2
124,642,571,163,97,61,61,84,2
115,553,593,176,98,58,59,84,2
125,567,611,165,94,54,58,85,2
101,495,637,167,64,38,39,63,2
100,504,644,164,60,40,40,60,2
100,476,570,159,62,40,42,65,2
120,498,568,153,68,55,52,65,2
113,457,475,149,68,57,58,60,2
112,434,507,145,64,58,64,57,2
114,419,561,154,63,59,66,64,2
113,385,606,181,68,59,70,64,2
91,345,590,179,62,46,68,61,2
94,315,606,183,63,45,69,71,2
106,311,562,191,85,45,68,77,2
104,320,555,222,95,44,66,71,2
101,349,621,267,98,49,63,70,2
102,342,665,277,100,53,65,78,2
93,331,675,285,98,59,61,70,2
71,323,669,286,84,57,56,63,2
75,347,654,264,86,55,58,72,2
72,343,580,223,88,52,58,73,2
69,381,526,238,88,46,45,62,2
79,392,585,242,95,41,46,64,2
85,402,571,272,92,44,48,69,2
80,367,569,313,96,44,44,60,2
87,352,533,337,98,45,49,62,2
88,349,535,321,135,50,54,66,2
80,359,447,312,136,47,62,64,2
76,382,534,317,137,46,63,63,2
73,404,528,309,129,45,66,62,2
70,433,613,282,124,47,63,63,2
72,453,641,295,85,46,62,61,2
78,451,636,311,87,51,66,66,2
85,420,570,299,99,58,75,75,2
86,492,561,269,100,61,74,79,2
83,470,508,263,100,59,78,79,2
83,449,550,298,97,56,77,78,2
87,423,543,298,88,50,68,77,2
84,451,557,282,78,45,74,71,2
83,356,590,281,82,41,70,69,2
84,406,623,325,88,39,67,68,2
82,420,613,287,91,37,66,66,2
70,428,640,285,103,41,65,61,2
73,412,644,274,104,38,42,52,2
76,453,643,284,97,39,44,55,2
70,447,617,262,88,38,39,49,2
66,510,632,256,87,39,37,52,2
68,514,655,247,72,39,37,52,2
66,519,634,266,68,39,36,54,2
66,513,603,253,84,37,33,49,2
71,484,559,216,94,35,33,49,2
77,445,511,244,95,35,34,48,2
83,503,465,234,95,34,33,46,2
88,567,561,241,94,33,35,49,2
89,537,559,237,85,36,37,51,2
114,614,615,280,86,41,38,53,2
116,587,590,249,80,40,38,57,2
117,547,614,265,78,42,40,59,2
116,482,576,241,76,41,37,56,2
114,503,593,237,70,39,36,54,2
91,425,613,182,53,34,34,55,2
88,477,621,177,56,33,34,51,2
82,499,623,144,52,31,33,55,2
79,521,611,148,55,35,34,56,2
84,524,634,185,61,36,37,61,2
80,495,625,244,66,39,38,58,2
73,438,598,244,66,39,37,58,2
74,410,597,250,68,39,37,56,2
66,424,568,248,69,36,38,53,2
64,435,576,227,72,40,40,56,2
70,470,544,156,66,39,40,57,2
81,494,552,155,88,43,42,62,2
80,498,515,141,90,43,44,68,2
83,473,565,142,92,44,42,70,2
87,452,541,134,83,41,37,64,2
85,441,524,131,90,46,41,67,2
81,460,632,146,67,41,39,62,2
81,459,669,149,62,41,38,59,2
89,428,639,140,56,43,39,60,2
94,465,651,146,62,47,40,65,2
99,459,628,146,60,45,37,64,2
98,478,494,122,62,47,40,67,2
96,477,473,131,64,49,40,66,2
86,479,486,133,63,46,40,66,2
79,459,429,130,57,41,37,61,2
72,456,481,130,51,37,36,59,2
75,422,487,147,49,35,33,57,2
72,423,459,141,43,33,34,55,2
77,423,427,151,44,34,37,58,2
74,449,422,141,41,33,38,59,2
70,465,352,132,39,33,38,58,2
65,423,403,114,38,34,41,59,2
70,446,371,111,37,30,40,56,2
69,439,407,85,35,29,36,51,2
71,421,441,84,39,30,34,48,2
75,385,467,92,43,33,34,50,2
71,427,447,89,43,32,31,46,2
66,394,454,84,46,34,29,47,2
64,420,421,85,44,34,31,45,2
65,440,441,88,46,37,33,46,2
62,429,435,84,42,33,33,44,2
61,390,415,80,42,34,33,43,2
63,400,404,81,41,34,34,43,2
62,371,395,85,43,35,35,44,2
56,357,325,74,37,30,32,43,2
60,368,331,73,38,32,34,46,2
60,366,364,78,41,32,35,47,2
55,339,394,82,38,31,33,45,2
54,349,405,87,39,31,31,46,2
51,312,401,90,40,36,46,42,2
44,314,371,92,42,38,51,39,2
42,322,371,86,37,37,54,35,2
61,375,359,80,38,38,60,44,2
59,346,357,78,38,37,61,44,2
61,325,427,119,46,37,57,47,2
63,326,429,115,43,45,117,61,2
65,309,416,122,46,48,123,63,2
47,243,424,123,47,49,126,60,2
50,270,429,119,45,49,129,57,2
49,310,360,77,35,46,130,54,2
53,343,352,76,36,39,85,46,2
59,344,321,75,36,37,80,46,2
65,352,317,229,52,40,75,51,2
68,357,303,240,57,42,69,53,2
69,312,300,252,62,41,63,56,2
76,411,414,262,98,38,53,53,2
77,459,456,271,101,37,46,53,2
79,490,475,189,106,34,40,52,2
80,497,472,176,106,31,40,53,2
82,513,491,244,115,38,42,55,2
80,415,420,271,104,38,54,60,2
87,395,422,280,108,41,56,66,2
82,345,501,281,104,41,71,65,2
89,331,559,289,111,45,106,76,2
91,311,628,319,139,56,114,76,2
85,355,630,336,149,55,123,74,2
75,340,632,328,156,58,133,72,2
78,387,565,340,159,59,134,69,2
65,423,615,351,158,57,110,57,2
64,483,570,298,131,47,107,61,2
77,523,592,261,112,53,112,65,2
90,563,616,285,118,48,157,67,2
108,647,714,288,122,54,166,86,2
113,731,676,306,133,61,195,90,2
115,757,667,293,145,63,250,106,2
114,749,667,343,153,70,254,105,2
107,733,651,338,165,72,228,107,2
108,682,586,332,193,72,226,109,2
110,612,584,335,266,76,219,110,2
120,566,607,357,294,80,183,100,2
114,545,621,314,300,70,166,96,2
123,565,661,322,298,76,177,106,2
139,619,664,340,291,78,171,102,2
142,608,665,321,243,74,153,105,2
136,639,677,296,205,67,112,97,2
146,657,671,293,199,70,109,100,2
146,695,647,283,196,62,77,89,2
127,678,662,240,227,58,68,80,2
125,669,722,290,228,56,50,76,2
120,633,766,291,238,58,51,77,2
107,694,794,294,251,55,50,71,2
99,670,802,277,250,56,51,69,2
101,658,751,296,213,56,47,68,2
97,644,663,239,222,51,45,63,2
102,674,642,237,212,50,44,62,2
113,581,595,224,201,53,45,67,2
114,539,588,247,200,57,44,67,2
110,536,630,268,199,53,39,57,2
113,562,662,270,163,52,38,59,2
116,542,608,275,167,55,39,60,2
110,570,614,283,167,49,34,56,2
115,565,591,266,161,45,37,63,2
109,549,553,246,154,45,41,65,2
115,563,549,278,149,49,44,71,2
110,586,557,282,159,47,48,68,2
109,667,614,315,145,49,48,68,2
98,682,641,322,144,51,46,60,2
104,663,678,326,144,51,45,64,2
90,626,655,299,143,46,42,54,2
90,611,629,292,121,45,40,58,2
83,539,561,247,130,44,42,61,2
93,572,561,234,121,38,38,58,2
83,565,561,215,114,37,36,54,2
84,609,554,196,108,43,42,61,2
79,599,568,181,96,46,45,62,2
84,528,632,190,73,47,47,62,2
72,469,574,187,70,49,52,66,2
86,481,537,175,70,51,56,76,2
92,463,529,172,72,49,53,72,2
97,434,490,176,85,44,50,69,2
94,445,427,158,81,43,48,67,2
93,444,447,155,85,41,45,65,2
81,413,442,151,79,37,38,50,2
76,440,442,149,73,36,39,51,2
72,454,464,130,54,35,40,51,2
65,471,407,116,54,37,38,51,2
60,473,404,113,43,36,37,46,2
61,455,421,123,50,37,35,47,2
59,432,403,127,50,36,34,45,2
53,434,386,122,47,33,28,39,2
57,446,419,139,48,30,28,39,2
58,472,390,136,51,30,29,43,2
58,472,325,109,56,30,30,45,2
52,442,318,104,59,30,26,41,2
54,422,302,127,61,30,29,45,2
50,377,268,114,65,28,26,42,2
55,353,285,112,65,32,29,46,2
48,359,319,114,57,32,32,44,2
49,342,344,111,53,31,37,48,2
52,360,364,91,55,35,41,49,2
58,366,422,86,52,36,47,53,2
53,360,441,81,51,35,48,52,2
55,377,426,106,51,35,45,49,2
56,351,432,124,58,34,43,48,2
66,323,441,128,62,33,39,49,2
65,353,459,131,71,34,34,44,2
72,346,450,134,73,36,33,43,2
71,345,506,140,77,35,33,44,2
76,428,501,312,85,39,34,43,2
64,420,520,361,110,37,35,42,2
60,398,479,375,116,40,36,42,2
55,383,481,381,131,38,37,43,2
65,416,431,395,143,42,40,47,2
69,361,426,288,150,39,41,50,2
72,375,431,231,142,40,42,51,2
76,442,421,229,139,36,41,52,2
77,447,488,304,141,43,43,51,2
69,443,554,293,158,43,41,48,2
70,466,573,307,167,49,41,48,2
70,476,553,319,164,49,40,47,2
69,422,551,310,161,50,39,50,2
69,433,529,251,154,44,36,49,2
72,457,475,259,157,42,33,48,2
59,422,430,237,155,34,31,44,2
62,424,444,220,152,32,28,42,2
66,433,467,232,150,32,28,42,2
78,464,433,250,144,33,35,50,2
81,410,414,247,104,32,38,55,2
88,409,432,268,115,37,42,57,2
89,441,405,305,131,39,43,57,2
84,404,367,298,145,40,45,56,2
68,406,376,292,155,41,40,49,2
61,387,359,298,160,41,41,43,2
54,432,390,324,137,40,38,44,2
53,408,437,326,125,44,42,47,2
58,471,424,332,118,45,45,50,2
61,418,390,324,109,44,46,51,2
61,455,445,309,109,47,51,50,2
79,439,436,309,141,55,60,58,2
84,439,424,299,145,53,58,57,2
82,409,456,302,142,55,58,57,2
90,445,480,313,145,58,64,65,2
101,481,525,331,220,65,62,68,2
99,542,658,306,268,94,56,67,2
97,557,706,287,285,117,62,73,2
136,638,708,298,317,130,67,82,2
135,641,716,292,335,136,65,81,2
145,645,679,282,306,134,70,85,2
141,635,598,263,294,115,69,83,2
148,689,618,263,288,96,64,82,2
124,696,710,298,305,107,60,74,2
129,700,736,281,300,117,59,76,2
130,715,786,274,291,121,56,79,2
127,706,761,333,275,126,56,79,2
119,700,692,330,268,130,59,80,2
122,615,710,291,235,111,55,81,2
116,605,679,292,228,101,51,79,2
98,594,735,296,223,97,43,71,2
118,591,767,285,190,99,49,80,2
118,527,795,323,176,90,47,75,2
117,551,721,306,172,87,53,77,2
122,546,724,300,210,96,53,76,2
123,551,616,290,214,95,52,75,2
108,533,571,230,251,108,45,65,2
117,538,543,256,254,112,45,67,2
114,536,526,289,234,112,43,66,2
132,582,538,318,206,97,46,69,2
136,565,509,331,252,101,50,72,2
153,649,509,339,220,75,53,76,2
151,707,684,293,253,86,53,76,2
147,746,662,267,249,92,49,70,2
125,753,649,252,230,90,48,65,2
121,769,685,228,173,87,50,64,2
98,730,710,223,196,86,46,57,2
110,726,567,284,156,72,49,61,2
112,683,601,291,154,58,49,61,2
124,661,662,285,158,56,49,63,2
136,669,705,291,155,51,45,67,2
136,660,716,303,106,56,49,73,2
134,593,680,227,100,52,46,75,2
138,596,735,220,124,56,46,75,2
145,612,710,221,120,58,51,82,2
138,578,668,269,135,64,54,83,2
141,557,628,248,142,60,55,86,2
131,557,635,250,151,57,58,84,2
122,549,534,243,144,57,58,84,2
98,561,516,229,145,53,55,73,2
84,523,497,163,135,44,49,66,2
72,482,572,147,139,41,45,53,2
65,463,599,145,140,40,40,43,2
76,468,658,140,162,37,41,45,2
75,412,734,144,198,43,39,48,2
92,430,787,154,257,57,43,58,2
102,514,775,185,308,86,46,65,2
114,510,776,196,310,103,54,73,2
112,547,745,217,338,111,55,75,2
119,546,723,245,339,176,61,81,2
124,617,715,301,310,177,63,83,2
128,591,680,308,277,176,72,91,2
122,613,749,313,301,170,69,88,2
123,651,756,297,278,174,67,86,2
129,762,735,310,294,131,69,94,2
124,743,686,265,316,131,70,97,2
118,735,789,261,302,124,58,92,2
121,762,715,286,295,163,59,91,2
121,720,698,305,322,163,59,94,2
119,683,658,279,301,155,50,79,2
106,657,662,266,300,156,44,64,2
119,672,564,244,341,164,46,63,2
119,627,595,250,346,137,47,72,2
128,653,664,268,328,127,50,71,2
133,557,675,281,337,126,51,76,2
136,593,683,294,351,130,55,79,2
128,582,667,317,364,134,54,76,2
126,582,703,305,349,131,55,72,2
118,519,634,279,380,137,57,72,2
104,559,679,278,369,134,58,66,2
115,556,670,324,419,143,54,67,2
113,628,686,315,394,141,55,70,2
122,758,613,338,398,140,55,66,2
131,886,741,363,387,148,53,66,2
136,869,765,387,410,171,54,74,2
141,897,777,389,371,164,64,82,2
154,868,796,386,363,156,65,82,2
165,897,781,360,407,155,67,87,2
173,857,683,337,386,172,76,92,2
174,862,625,310,369,163,78,89,2
211,871,658,271,335,163,75,87,2
204,879,594,279,353,172,76,88,2
195,789,601,258,316,176,79,90,2
189,784,670,289,311,164,75,83,2
199,829,733,306,315,153,78,92,2
167,840,696,297,310,146,80,101,2
165,863,713,290,278,131,77,95,2
167,975,764,327,259,122,68,87,2
160,976,722,313,265,92,63,87,2
156,973,667,282,259,86,67,87,2
149,948,736,278,257,119,69,76,2
154,924,741,288,326,130,69,79,2
162,891,700,263,347,126,71,89,2
156,813,671,245,334,130,70,90,2
144,827,621,244,362,135,64,81,2
132,837,531,247,363,105,54,73,2
128,925,514,265,301,84,54,71,2
108,831,529,254,266,88,52,62,2
115,938,580,290,296,131,54,65,2
145,898,586,287,256,148,57,80,2
151,888,556,304,247,152,64,87,2
145,766,556,330,247,158,62,85,2
141,807,592,342,273,164,63,82,2
138,749,612,316,236,150,60,77,2
142,768,666,332,243,135,60,78,2
140,747,738,350,257,141,58,77,2
140,761,734,305,262,157,56,78,2
150,797,732,311,241,158,57,85,2
163,746,682,301,239,173,63,95,2
128,710,730,298,223,172,57,80,2
120,717,684,293,224,164,52,72,2
126,677,657,287,236,156,52,75,2
115,562,653,272,230,153,50,73,2
94,571,643,281,226,120,41,62,2
96,575,528,279,255,137,43,63,2
93,506,527,227,247,135,43,62,2
84,519,563,218,247,142,44,57,2
86,487,504,242,248,138,43,54,2
84,449,484,239,286,142,44,53,2
82,427,488,231,276,125,40,53,2
84,463,431,253,253,123,43,60,2
89,442,409,272,243,105,44,66,2
96,463,416,244,250,117,44,66,2
97,457,454,252,225,124,42,63,2
97,444,523,291,200,129,41,60,2
99,468,582,323,246,151,37,55,2
100,509,592,345,250,163,37,51,2
86,485,585,337,238,153,39,49,2
85,525,616,325,239,142,39,50,2
83,551,546,294,234,127,40,51,2
75,514,563,267,191,108,40,52,2
74,479,628,232,202,90,40,54,2
69,490,672,275,218,107,36,53,2
74,475,632,283,206,110,36,53,2
74,501,669,265,212,119,35,53,2
72,462,660,262,204,118,33,51,2
73,472,648,244,212,126,35,57,2
75,546,636,197,220,116,35,57,2
68,534,624,252,208,105,37,56,2
62,467,596,250,208,110,38,55,2
70,547,545,231,237,106,41,61,2
62,537,469,252,210,88,36,53,2
60,430,440,266,198,83,36,50,2
65,440,464,227,204,112,34,49,2
71,446,497,237,237,100,33,48,2
63,376,568,232,220,119,31,42,2
60,364,606,224,226,126,32,39,2
68,393,586,228,221,129,37,42,2
72,504,615,244,232,129,39,49,2
67,511,581,259,200,131,38,52,2
72,552,528,261,191,111,40,55,2
74,613,517,273,177,109,41,59,2
74,638,504,254,184,105,38,59,2
65,530,424,237,182,75,37,56,2
64,513,394,216,181,100,39,55,2
66,466,447,252,225,101,43,57,2
65,436,398,252,236,101,41,53,2
61,367,504,266,239,105,39,51,2
65,428,568,282,250,106,39,49,2
67,436,587,319,248,77,39,47,2
66,423,545,305,220,82,33,39,2
70,397,570,285,236,73,34,43,2
87,437,524,270,233,81,37,49,2
91,426,538,298,232,78,41,57,2
98,511,565,273,240,79,43,59,2
97,508,536,256,240,70,45,60,2
91,490,542,266,233,74,43,56,2
88,479,521,311,235,61,46,58,2
88,450,441,268,236,61,45,55,2
85,402,399,249,254,60,47,58,2
83,462,427,246,261,60,48,58,2
84,467,418,294,251,52,51,59,2
68,499,425,255,246,48,46,48,2
71,558,429,251,248,45,47,50,2
64,542,449,259,257,49,47,46,2
63,495,435,288,263,51,47,46,2
68,493,406,233,260,61,46,48,2
70,455,425,248,251,65,47,51,2
58,397,407,241,226,64,46,46,2
60,470,461,296,287,67,41,44,2
69,479,497,268,266,65,38,48,2
70,521,529,287,266,64,37,49,2
65,534,519,264,264,60,35,45,2
67,526,573,279,270,66,31,48,2
75,465,505,231,155,63,32,52,2
66,501,555,226,155,64,31,50,2
62,515,655,235,151,58,31,46,2
63,526,676,236,149,60,33,49,2
61,534,668,257,141,57,31,49,2
48,518,687,244,137,50,31,45,2
51,562,620,264,179,70,31,49,2
58,598,524,273,187,74,30,50,2
70,632,558,273,195,79,30,53,2
71,661,556,278,199,76,30,47,2
75,726,578,295,196,79,33,52,2
87,655,685,278,192,88,36,54,2
87,644,694,248,217,97,38,57,2
83,659,716,283,238,97,38,55,2
90,675,744,304,233,99,42,62,2
97,630,812,287,235,98,41,62,2
88,650,762,293,203,73,37,58,2
87,586,726,303,163,56,35,56,2
89,539,669,266,166,48,36,56,2
91,582,705,237,184,73,33,49,2
97,615,628,237,193,100,41,57,2
96,617,590,239,215,109,44,59,2
95,660,648,221,215,110,45,56,2
95,658,632,239,181,109,46,59,2
91,598,580,201,178,93,46,63,2
94,637,683,257,169,70,43,64,2
108,660,713,257,154,87,45,69,2
107,632,712,266,160,95,46,72,2
112,676,834,263,156,96,47,74,2
113,670,844,282,147,97,49,79,2
101,601,782,266,152,95,47,70,2
94,569,826,290,138,70,44,68,2
106,584,811,298,130,58,47,70,2
98,531,781,299,135,55,44,63,2
107,512,781,339,158,63,46,61,2
110,498,859,320,178,61,46,64,2
104,546,804,300,187,60,46,61,2
123,585,807,317,193,71,53,71,2
125,592,760,323,196,73,53,72,2
145,590,841,291,188,76,61,88,2
153,641,741,282,158,74,63,94,2
160,628,772,320,150,79,63,96,2
144,591,810,309,151,71,57,89,2
145,575,783,302,140,69,59,92,2
120,612,662,269,107,61,50,78,2
113,543,656,284,110,61,51,72,2
104,537,616,231,110,54,49,69,2
100,614,558,191,94,50,48,70,2
108,650,560,198,117,73,48,74,2
101,625,539,198,128,84,43,68,2
96,648,482,176,140,162,44,67,2
101,631,501,173,172,218,49,69,2
101,560,450,179,198,226,56,73,2
97,550,441,165,183,221,57,73,2
101,516,491,157,185,218,61,76,2
100,516,513,146,173,172,57,76,2
94,533,525,138,138,96,53,72,2
88,516,563,118,99,77,47,63,2
84,457,523,106,141,76,45,63,2
84,468,498,127,126,69,43,62,2
82,435,541,136,132,57,43,62,2
81,384,503,140,170,53,46,64,2
81,347,516,152,196,57,48,68,2
82,345,582,220,187,79,49,63,2
83,377,560,216,195,80,48,63,2
85,398,559,228,214,86,48,60,2
91,442,591,243,211,88,47,62,2
91,443,615,302,215,88,45,61,2
81,444,575,285,211,61,38,55,2
78,430,661,290,229,65,38,57,2
75,415,628,299,228,64,36,59,2
71,352,602,333,211,100,32,56,2
78,370,590,306,249,105,37,61,2
81,367,578,295,242,110,41,63,2
83,337,519,348,247,111,43,65,2
81,327,557,347,245,110,43,63,2
80,339,643,306,278,82,44,63,2
78,432,655,306,239,91,40,57,2
76,487,671,300,252,87,38,57,2
69,563,678,236,241,81,34,48,2
72,616,717,265,240,82,35,50,2
73,653,630,294,212,86,36,50,2
63,606,546,282,209,101,33,48,2
63,652,552,275,191,106,35,48,2
68,591,532,297,182,110,38,56,2
65,610,439,273,172,107,36,56,2
63,563,477,251,179,103,37,56,2
65,542,492,271,184,73,40,61,2
68,439,479,299,198,94,40,66,2
71,448,576,335,191,101,42,63,2
72,354,556,348,210,105,47,63,2
71,434,564,342,202,107,47,63,2
73,452,638,326,191,105,48,62,2
83,509,644,352,180,82,50,59,2
76,488,549,311,195,69,50,57,2
82,494,582,292,187,65,51,59,2
87,422,569,291,170,56,54,63,2
91,419,493,339,177,56,58,65,2
82,384,488,296,181,64,59,63,2
80,385,499,283,253,71,60,62,2
81,466,567,299,247,72,58,63,2
80,478,546,331,251,70,54,63,2
75,505,537,283,241,69,49,65,2
73,495,516,277,238,58,46,63,2
80,531,552,292,160,47,44,68,2
71,440,534,298,172,65,43,62,2
73,502,549,264,218,66,43,61,2
78,464,566,270,224,68,45,56,2
88,516,641,308,261,78,50,68,2
92,528,618,334,259,85,51,69,2
98,621,595,344,262,70,50,75,2
103,634,605,356,254,87,51,78,2
100,639,605,350,250,103,51,78,2
93,625,581,321,261,101,44,68,2
88,643,624,290,259,95,42,61,2
97,590,606,237,243,97,43,62,2
97,568,626,225,222,94,42,59,2
100,624,656,206,224,81,38,56,2
107,591,627,197,196,99,43,61,2
110,543,545,171,188,107,44,64,2
99,568,551,195,191,106,42,58,2
94,580,510,181,179,97,45,67,2
93,627,521,187,173,150,48,66,2
87,677,521,186,123,200,46,64,2
80,739,623,199,124,217,48,67,2
80,724,625,212,144,227,50,66,2
88,748,642,297,181,265,57,69,2
85,658,621,302,196,250,55,67,2
95,624,680,306,199,204,54,74,2
105,575,596,346,197,185,53,71,2
117,588,606,325,178,177,59,86,2
111,570,585,256,131,111,52,77,2
126,616,564,249,116,94,55,84,2
124,600,546,267,142,144,57,81,2
121,577,592,265,182,170,55,81,2
109,577,584,261,191,171,48,64,2
102,547,628,263,199,175,47,64,2
83,507,614,273,202,173,44,61,2
86,574,614,266,208,138,45,65,2
81,584,587,195,170,103,45,64,2
95,533,574,196,164,94,46,72,2
98,520,549,196,163,123,50,72,2
103,572,630,186,157,125,52,74,2
107,603,577,235,155,124,52,70,2
124,608,560,251,246,160,56,79,2
115,657,601,274,252,162,57,77,2
134,767,631,285,311,152,54,81,2
159,766,649,289,316,151,56,88,2
152,793,676,230,311,152,56,90,2
163,830,723,219,271,126,58,92,2
181,867,764,284,290,141,67,106,2
216,884,822,379,243,135,88,139,2
209,921,779,381,242,126,87,142,2
224,907,766,393,229,124,93,153,2
226,922,795,430,207,115,95,157,2
226,896,757,389,176,97,94,154,2
192,826,825,296,151,86,78,130,2
191,762,814,285,180,92,82,130,2
181,679,821,273,240,87,84,120,2
161,613,783,217,235,82,81,109,2
143,581,728,197,230,79,78,104,2
161,596,571,202,226,78,82,109,2
173,620,565,199,195,74,82,107,2
173,635,579,262,112,73,78,107,2
170,656,568,259,113,69,75,108,2
176,681,675,266,120,68,77,107,2
149,633,667,288,139,66,77,95,2
128,602,698,328,139,66,76,97,2
122,594,679,284,140,63,72,92,2
132,572,666,325,173,63,74,93,2
124,608,616,358,176,62,76,91,2
131,574,646,363,170,60,79,94,2
118,558,587,378,189,56,77,80,2
121,607,611,408,194,61,78,80,2
113,620,600,392,177,64,79,81,2
143,555,603,431,177,66,74,80,2
229,596,521,422,171,64,70,94,2
239,673,631,404,153,66,75,98,2
239,605,611,426,147,61,75,93,2
239,612,631,449,161,60,71,86,2
226,614,587,394,154,58,71,86,2
136,594,688,406,155,55,64,64,2
126,493,651,420,151,52,55,72,2
113,497,683,395,171,56,48,73,2
119,493,656,354,147,52,48,80,2
114,473,653,360,155,59,45,80,2
106,478,573,315,151,60,46,77,2
96,569,543,280,150,62,45,70,2
106,563,543,264,154,62,50,78,2
101,641,635,288,194,74,53,83,2
104,635,633,306,197,75,56,85,2
107,672,740,323,196,75,55,86,2
117,678,787,339,210,80,56,85,2
129,715,759,336,198,85,58,91,2
132,660,705,339,213,89,56,86,2
125,673,728,341,224,83,50,79,2
125,670,590,332,233,84,49,77,2
119,619,593,310,220,76,48,75,2
96,644,558,285,213,71,41,62,2
85,615,608,272,158,53,39,57,2
88,608,661,217,124,52,40,59,2
88,573,700,212,101,49,43,64,2
85,575,777,244,99,51,43,64,2
88,596,849,282,97,51,41,58,2
84,593,859,271,96,53,39,56,2
79,625,820,265,93,50,35,50,2
76,604,827,268,93,51,33,50,2
92,593,684,257,102,55,42,63,2
96,543,686,221,111,52,44,67,2
101,530,646,238,113,58,45,69,2
105,483,637,248,123,64,47,73,2
106,538,605,311,126,65,47,74,2
96,545,608,290,118,65,41,69,2
94,549,501,294,110,62,40,69,2
100,659,565,285,110,59,43,77,2
93,670,606,293,107,54,42,73,2
89,681,606,214,106,51,41,70,2
86,716,654,224,126,44,41,65,2
93,719,710,244,128,51,43,68,2
88,651,738,246,120,47,40,61,2
91,648,700,241,109,45,40,61,2
102,666,725,253,110,47,41,65,2
108,637,736,238,115,52,47,76,2
107,621,719,229,119,54,50,80,2
119,593,665,227,126,53,51,83,2
115,595,697,220,126,53,50,83,2
120,524,698,211,131,56,53,86,2
112,499,678,252,110,53,47,76,2
120,550,655,258,116,51,45,75,2
104,547,643,240,106,51,47,73,2
110,550,591,231,142,55,52,79,2
94,524,566,225,164,51,48,71,2
97,521,534,181,163,51,49,72,2
86,487,543,181,153,47,45,65,2
96,533,517,194,152,45,43,64,2
92,516,547,195,117,46,42,60,2
98,556,517,203,83,46,43,63,2
104,540,517,214,85,44,43,60,2
98,518,504,189,100,43,41,57,2
87,519,462,173,101,46,41,55,2
85,515,452,239,102,42,38,52,2
83,522,508,239,91,39,35,49,2
89,532,520,234,91,44,42,55,2
99,546,655,232,69,47,45,60,2
142,546,664,257,78,52,54,81,2
153,618,749,211,78,53,56,87,2
156,639,766,222,85,56,61,90,2
170,657,798,220,88,55,60,96,2
174,669,717,241,92,57,61,100,2
152,677,747,266,94,56,58,88,2
157,630,692,280,100,59,57,89,2
166,634,641,273,107,65,60,98,2
162,709,659,267,108,68,61,101,2
161,747,696,322,119,72,61,98,2
202,783,774,297,117,76,68,112,2
208,796,800,286,113,76,71,112,2
229,761,887,295,111,76,73,116,2
227,708,869,302,105,72,72,112,2
232,705,861,242,91,67,73,115,2
209,656,829,278,88,61,65,103,2
199,648,801,271,87,58,63,100,2
186,710,759,280,91,60,63,100,2
176,751,737,295,98,65,68,103,2
161,741,725,290,94,65,71,97,2
142,744,766,245,95,64,74,96,2
141,781,743,258,101,69,81,101,2
107,699,703,249,105,63,76,85,2
107,733,669,224,115,59,79,77,2
119,671,642,210,119,59,78,82,2
114,627,569,200,116,60,79,79,2
99,558,599,235,112,56,74,66,2
104,562,574,241,98,53,71,69,2
97,427,606,250,80,57,66,71,2
82,419,618,252,80,55,61,65,2
78,431,557,254,82,52,53,62,2
75,517,536,254,78,51,49,63,2
71,568,573,230,84,50,47,58,2
73,549,624,235,125,43,45,53,2
85,562,660,234,128,45,52,54,2
89,535,693,243,126,46,56,53,2
98,418,748,208,128,44,57,55,2
149,462,832,245,145,63,76,84,2
162,484,853,246,121,73,87,100,2
169,536,831,274,187,81,100,112,2
174,550,828,269,200,86,102,117,2
178,612,813,307,212,90,105,122,2
146,567,704,286,207,78,96,111,2
132,603,618,272,219,73,87,106,2
119,624,591,317,173,62,70,101,2
127,643,563,334,172,62,79,108,2
121,620,487,331,164,61,79,102,2
126,677,456,390,158,64,77,103,2
127,629,516,399,141,59,79,97,2
127,585,531,349,140,62,78,91,2
112,552,505,327,131,62,69,85,2
112,535,497,303,132,58,66,85,2
105,446,508,267,128,56,69,82,2
106,471,410,271,129,57,66,78,2
99,428,392,262,115,54,67,74,2
93,440,407,313,108,44,61,61,2
87,425,394,304,91,41,57,61,2
78,443,444,291,98,43,56,59,2
70,479,506,310,87,41,53,63,2
83,475,484,325,96,42,49,64,2
94,499,471,293,97,44,54,72,2
95,487,509,341,114,45,59,73,2
89,487,513,329,105,44,60,65,2
87,483,575,310,110,42,66,59,2
77,504,591,334,100,43,69,58,2
74,532,612,325,116,44,66,50,2
73,553,590,290,113,44,67,50,2
70,512,558,289,118,44,62,51,2
73,424,448,313,120,45,57,56,2
76,390,443,275,125,45,62,53,2
78,359,452,318,112,42,62,58,2
78,372,507,303,103,42,58,56,2
84,377,503,316,95,43,60,61,2
91,420,622,293,102,45,59,59,2
91,411,644,317,97,42,51,64,2
80,369,655,290,91,42,50,61,2
79,334,626,340,83,41,49,61,2
74,357,619,339,99,39,47,57,2
64,347,518,338,105,35,45,55,2
70,402,534,336,111,37,42,54,2
70,397,562,337,128,43,41,55,2
72,409,546,278,137,41,42,54,2
79,472,564,258,126,41,41,52,2
82,459,581,241,113,41,44,59,2
76,421,541,251,118,39,44,54,2
76,412,593,244,103,34,43,53,2
88,533,620,244,101,37,40,61,2
82,463,663,236,127,39,38,65,2
80,486,631,233,128,42,36,62,2
84,487,706,200,129,45,33,61,2
95,503,661,201,139,45,34,63,2
97,408,653,204,140,44,34,57,2
96,424,590,206,119,43,33,53,2
97,404,589,208,108,40,33,51,2
94,408,512,271,95,38,34,51,2
86,394,449,260,79,38,33,49,2
68,364,439,252,66,37,29,43,2
64,350,449,243,91,36,31,43,2
59,336,452,237,127,35,31,45,2
58,476,459,171,134,38,36,52,2
56,518,518,217,135,40,38,53,2
58,519,519,220,137,38,39,54,2
82,514,558,255,126,39,39,59,2
87,557,637,262,100,42,40,60,2
85,451,608,285,101,38,36,55,2
89,433,579,255,96,36,35,56,2
89,485,632,281,97,39,36,58,2
68,513,606,256,88,37,33,52,2
66,491,568,279,91,38,32,50,2
68,514,552,253,84,41,33,52,2
69,529,544,266,103,42,34,51,2
71,510,514,243,102,40,31,46,2
83,548,543,242,110,40,32,50,2
88,588,531,224,99,40,36,53,2
94,617,583,220,113,38,35,50,2
90,620,604,191,106,44,37,55,2
98,666,632,196,109,53,44,69,2
106,658,667,201,104,57,47,72,2
107,685,658,207,105,60,47,80,2
110,659,646,210,87,61,48,82,2
116,660,646,213,82,60,47,86,2
122,657,576,197,79,60,53,94,2
120,646,526,198,80,61,58,100,2
127,655,523,179,79,58,58,96,2
122,646,523,154,75,56,57,95,2
123,624,502,150,68,53,57,90,2
110,573,552,152,61,44,48,75,2
97,565,552,141,54,38,41,63,2
94,510,522,134,58,39,40,62,2
95,496,518,133,58,39,40,60,2
89,498,590,140,58,40,41,59,2
99,520,556,160,60,43,43,68,2
109,516,528,159,61,43,44,69,2
98,460,618,197,60,41,41,66,2
94,472,602,198,57,40,41,67,2
88,454,528,192,58,40,41,66,2
74,395,515,173,50,34,36,51,2
74,403,531,177,53,34,43,59,2
86,409,444,142,54,38,49,63,2
103,395,486,150,59,40,52,69,2
108,439,480,150,61,41,53,71,2
115,468,493,158,63,44,59,82,2
106,445,490,164,59,43,54,75,2
96,544,487,160,55,39,49,71,2
105,648,514,166,58,41,51,76,2
108,651,520,172,57,41,54,80,2
104,652,492,177,59,40,50,74,2
112,712,500,173,59,41,51,75,2
112,634,516,168,63,44,54,76,2
95,544,485,152,58,42,52,70,2
84,506,448,139,55,39,46,62,2
90,490,454,127,55,41,45,66,2
84,371,428,128,58,42,49,67,2
88,382,407,129,56,42,45,63,2
84,333,362,119,53,43,43,59,2
84,334,391,116,53,48,52,58,2
78,315,403,112,53,49,58,50,2
75,345,408,94,47,49,65,43,2
68,343,391,97,43,49,68,45,2
64,363,469,115,47,47,69,39,2
62,352,578,145,56,45,63,40,2
54,352,610,150,54,42,56,37,2
54,318,638,183,56,38,43,37,2
52,287,647,176,60,42,48,39,2
49,289,648,168,57,40,48,45,2
60,303,542,143,50,40,53,45,2
63,266,531,185,54,41,55,48,2
60,311,534,164,72,41,55,48,2
56,321,556,173,127,40,47,42,2
58,334,481,177,138,40,43,37,2
55,355,499,184,159,38,37,39,2
51,393,490,177,176,37,34,37,2
57,487,455,170,171,37,31,40,2
65,492,416,160,135,32,30,43,2
65,480,396,163,125,34,30,45,2
67,459,411,154,101,34,30,44,2
77,497,403,187,74,36,31,52,2
76,382,407,205,75,37,33,53,2
73,376,419,224,73,38,33,51,2
72,373,426,232,74,39,37,53,2
69,375,402,283,76,41,39,55,2
62,300,387,249,63,39,41,48,2
64,292,358,256,60,41,44,48,2
68,375,349,255,58,39,46,52,2
74,360,376,245,61,39,44,54,2
76,372,338,230,52,38,42,53,2
72,406,322,218,53,36,43,52,2
70,419,307,202,50,32,40,51,2
64,386,281,208,52,33,39,45,2
56,432,236,239,53,34,41,44,2
49,465,286,230,53,37,47,46,2
53,431,310,233,57,43,47,53,2
55,561,348,240,63,45,48,54,2
63,542,357,236,66,47,54,58,2
63,504,407,265,97,48,59,55,2
70,503,608,253,104,49,58,54,2
65,517,622,262,110,46,57,51,2
69,395,617,262,108,46,57,53,2
74,395,650,293,119,46,53,63,2
77,448,695,261,127,49,55,72,2
83,461,546,260,127,55,61,79,2
88,543,527,266,130,58,63,78,2
87,572,513,282,140,59,65,75,2
81,570,559,297,137,60,65,67,2
80,567,531,296,122,57,61,58,2
68,527,519,287,146,51,52,48,2
66,466,619,293,160,48,50,50,2
59,406,666,298,177,48,46,52,2
57,408,599,268,176,47,46,53,2
62,416,594,275,175,47,48,56,2
63,431,634,282,170,45,46,55,2
66,436,603,269,163,48,44,53,2
66,488,567,233,146,52,44,50,2
69,511,639,218,157,50,42,51,2
62,508,629,219,153,52,35,45,2
65,505,651,222,185,79,37,47,2
66,462,606,218,187,81,44,52,2
79,436,620,227,184,78,44,54,2
80,415,654,212,174,80,44,54,2
86,398,707,191,170,81,46,59,2
84,421,690,230,116,57,45,57,2
84,423,667,223,91,50,40,54,2
72,453,674,236,79,48,42,55,2
71,452,658,244,71,44,41,53,2
63,434,580,241,73,40,36,47,2
64,447,525,207,80,37,36,48,2
59,452,601,227,103,43,34,45,2
54,469,695,223,103,44,31,40,2
60,477,648,236,117,48,32,43,2
68,485,704,267,118,49,35,45,2
68,447,761,263,107,48,35,46,2
80,495,753,295,101,47,38,53,2
99,482,669,294,130,61,47,67,2
109,553,678,283,126,64,50,72,2
125,606,646,272,125,65,50,74,2
134,665,620,290,127,68,53,77,2
135,675,647,242,120,66,51,75,2
127,664,631,240,117,54,45,66,2
120,621,643,266,116,57,42,60,2
115,584,635,264,124,59,46,63,2
105,562,636,234,142,64,43,58,2
98,548,615,272,140,65,44,60,2
108,561,698,286,143,66,50,73,2
110,548,675,269,227,103,53,76,2
101,618,678,258,254,110,50,77,2
113,619,674,288,269,133,57,87,2
124,616,642,262,285,153,60,90,2
126,605,623,280,320,172,54,83,2
136,685,661,288,285,156,52,84,2
156,686,702,307,265,152,60,94,2
160,726,761,290,262,131,57,93,2
159,801,822,292,260,115,61,98,2
180,841,848,320,237,94,70,113,2
181,795,855,312,219,86,76,118,2
173,781,802,283,211,85,72,108,2
171,765,727,268,184,84,73,105,2
176,782,670,258,162,74,69,100,2
146,802,579,232,98,60,61,80,2
139,812,547,228,81,53,55,67,2
127,766,548,247,83,53,68,77,2
119,766,577,272,113,48,63,71,2
106,652,616,295,144,53,66,65,2
106,587,633,265,197,53,64,68,2
90,550,607,289,212,59,62,66,2
85,553,680,307,226,56,43,56,2
90,559,706,311,216,59,44,60,2
83,561,664,296,205,53,42,59,2
93,581,605,283,174,54,44,64,2
110,640,646,290,191,57,48,74,2
122,703,623,319,186,63,57,73,2
117,656,662,322,183,63,61,75,2
121,679,670,331,178,67,64,79,2
118,681,707,333,168,69,68,80,2
108,626,699,311,143,65,65,72,2
99,626,731,297,121,61,58,74,2
107,640,641,293,146,61,59,78,2
110,605,644,296,215,62,58,77,2
104,593,679,303,222,64,52,72,2
103,603,641,322,230,61,51,73,2
94,501,587,281,237,66,51,68,2
80,452,648,267,224,64,43,57,2
70,449,642,238,159,61,37,53,2
64,389,638,231,146,58,37,53,2
61,341,640,249,131,57,37,50,2
63,382,649,278,126,51,35,48,2
83,403,602,271,121,51,40,57,2
83,378,605,272,114,49,41,56,2
85,381,590,256,135,48,42,57,2
84,373,652,196,140,49,41,58,2
82,337,627,131,132,45,40,59,2
63,277,614,192,130,45,36,52,2
70,281,582,201,130,43,37,55,2
65,275,537,208,111,40,35,53,2
66,333,453,215,114,42,35,57,2
77,365,447,238,116,45,38,65,2
76,390,486,202,117,46,38,65,2
73,395,480,187,118,46,36,61,2
72,364,467,180,116,46,35,61,2
75,318,463,175,93,41,33,57,2
66,345,468,146,101,38,29,49,2
65,321,395,129,100,34,30,49,2
68,384,456,160,124,38,31,48,2
66,388,536,164,125,37,30,48,2
61,391,513,151,129,34,32,47,2
58,356,560,171,127,34,34,46,2
58,353,585,183,125,34,37,44,2
64,330,573,203,98,38,44,59,2
69,344,540,232,83,39,47,60,2
78,413,604,275,80,39,47,59,2
76,395,553,286,107,40,48,57,2
78,415,572,306,119,43,50,60,2
77,382,540,301,123,37,45,53,2
78,401,491,282,124,40,55,57,2
77,351,449,252,136,43,60,64,2
90,419,477,263,118,52,62,77,2
92,417,434,242,175,56,66,81,2
83,479,508,229,175,55,66,76,2
85,471,642,298,180,58,58,74,2
80,460,629,297,168,56,57,72,2
71,421,595,311,167,49,53,64,2
78,456,666,342,106,44,47,58,2
83,453,679,401,111,48,54,62,2
75,452,587,379,126,43,57,62,2
76,465,612,394,143,45,58,59,2
76,453,691,402,138,47,59,56,2
67,418,626,429,141,50,59,58,2
69,355,562,384,144,47,53,60,2
73,323,560,375,130,50,50,63,2
67,306,539,362,126,48,45,62,2
72,307,483,363,137,45,44,64,2
78,314,576,308,125,43,46,66,2
73,303,646,296,116,43,47,63,2
69,361,693,282,143,42,46,59,2
72,373,726,355,135,43,46,57,2
67,360,691,320,130,45,44,59,2
62,414,600,315,152,45,39,52,2
61,407,564,305,148,45,38,53,2
62,471,495,297,129,42,35,50,2
69,447,448,216,139,40,36,54,2
68,441,495,203,134,42,42,57,2
68,445,543,203,121,40,42,61,2
75,510,591,262,132,38,41,59,2
72,432,677,274,124,42,40,60,2
69,489,742,269,113,42,39,61,2
69,526,721,315,130,45,33,57,2
79,539,738,388,121,49,33,57,2
78,536,661,367,112,53,44,61,2
80,536,640,371,110,52,44,61,2
81,511,615,363,103,53,45,63,2
78,477,628,366,85,51,47,62,2
67,431,644,361,82,48,48,60,2
66,390,737,354,83,45,40,60,2
66,409,672,341,91,45,43,61,2
63,493,634,349,115,54,44,63,2
63,531,648,306,133,58,42,61,2
62,537,567,270,136,56,43,59,2
60,533,558,268,145,57,42,57,2
72,568,653,288,143,55,39,54,2
72,491,698,296,126,46,38,47,2
74,472,687,300,101,39,39,49,2
80,470,737,281,107,41,36,54,2
77,481,689,284,103,40,34,49,2
73,459,652,266,101,42,36,52,2
69,487,633,260,100,40,33,48,2
71,509,637,258,109,38,31,42,2
74,492,642,252,97,41,34,43,2
85,483,621,270,91,43,39,55,2
85,484,600,291,92,43,41,56,2
92,442,605,286,87,47,45,61,2
90,415,647,283,76,47,46,63,2
86,409,614,246,84,44,43,59,2
77,403,649,213,100,41,39,51,2
73,365,632,197,101,42,39,53,2
72,360,675,232,112,40,36,52,2
70,355,607,237,116,40,35,52,2
77,345,598,248,116,48,40,63,2
81,350,574,247,101,49,41,63,2
79,320,576,228,94,48,39,61,2
71,379,452,169,90,48,38,60,2
75,411,473,147,87,49,37,59,2
68,436,511,113,79,44,35,53,2
68,495,587,126,90,39,31,49,2
72,505,674,144,90,40,32,50,2
73,483,678,154,88,38,30,48,2
68,445,702,161,106,36,30,47,2
65,417,719,177,112,35,26,42,2
81,394,652,166,115,35,28,46,2
75,387,602,162,119,34,25,41,2
76,385,639,162,118,34,28,42,2
76,371,639,156,101,33,29,42,2
77,397,580,136,101,31,26,41,2
62,367,582,133,81,32,26,40,2
79,406,618,127,72,31,28,48,2
80,377,566,113,68,31,28,51,2
85,421,530,117,73,38,33,59,2
85,398,526,114,73,41,37,61,2
81,357,488,129,75,42,38,61,2
69,355,377,120,87,42,38,59,2
66,349,419,124,86,41,38,57,2
75,306,439,120,79,35,35,52,2
74,308,479,129,75,31,34,53,2
71,293,481,105,72,28,31,49,2
70,235,564,116,75,30,32,50,2
71,234,531,122,82,32,32,51,2
57,220,515,125,84,33,32,50,2
58,223,495,124,83,32,32,50,2
59,263,520,128,83,34,33,51,2
53,278,458,122,74,33,31,48,2
55,282,487,132,70,30,31,48,2
47,287,467,121,70,29,31,43,2
54,295,472,123,76,29,29,43,2
54,273,432,124,85,28,32,43,2
58,280,440,144,87,26,30,40,2
59,335,451,162,85,28,33,42,2
62,369,468,167,88,28,32,45,2
54,365,477,168,83,30,31,41,2
55,364,533,167,81,31,30,43,2
56,362,517,146,76,31,30,45,2
54,314,511,101,74,30,28,42,2
56,302,519,91,68,30,31,46,2
56,311,510,95,64,30,32,48,2
62,322,549,123,70,30,34,50,2
60,291,525,121,75,32,36,49,2
69,328,559,148,93,36,38,57,2
68,292,541,157,93,35,36,53,2
76,319,571,176,102,39,39,56,2
72,297,475,161,93,40,38,55,2
78,338,472,165,94,43,44,64,2
72,320,389,164,97,48,45,62,2
72,332,435,155,97,51,47,63,2
77,311,412,134,95,49,46,63,2
74,312,412,132,93,49,44,62,2
74,277,471,150,97,48,41,59,2
72,289,528,134,79,41,37,56,2
67,266,485,138,76,40,35,51,2
51,257,457,140,79,36,32,46,2
52,255,503,137,80,36,33,44,2
45,261,480,113,78,35,31,40,2
49,258,533,123,79,36,33,45,2
54,324,539,137,102,36,32,45,2
57,333,534,134,105,38,32,47,2
55,345,539,150,111,36,31,47,2
52,339,550,228,116,36,31,45,2
48,321,469,263,115,34,28,39,2
56,348,513,281,102,37,33,46,2
60,360,586,306,122,38,35,50,2
67,364,584,322,124,38,35,52,2
70,374,541,309,117,35,32,51,2
72,393,566,343,121,41,35,55,2
69,352,653,347,133,41,32,52,2
63,333,622,337,110,37,29,45,2
57,333,605,329,118,40,31,44,2
52,330,634,306,127,39,30,42,2
46,333,623,235,129,35,26,35,2
47,344,526,249,121,35,26,35,2
47,357,487,257,123,38,29,37,2
46,356,516,250,112,35,28,38,2
47,363,546,265,103,38,30,38,2
48,356,514,275,102,38,31,37,2
40,309,490,232,100,35,31,38,2
47,284,485,211,93,33,30,38,2
51,297,486,225,99,37,33,38,2
52,313,419,201,107,36,32,38,2
55,323,434,218,109,34,32,40,2
60,338,461,221,105,34,32,39,2
53,373,495,223,110,36,31,36,2
50,363,496,251,107,32,26,34,2
51,339,549,254,104,32,26,36,2
50,322,617,232,104,30,24,34,2
45,332,615,227,100,29,26,30,2
52,310,610,237,97,29,28,34,2
62,307,618,249,92,30,32,42,2
61,291,570,252,85,32,31,43,2
66,335,484,251,89,37,35,48,2
67,311,421,253,106,40,37,52,2
66,286,439,241,114,40,39,55,2
62,327,401,189,112,41,38,54,2
63,331,447,206,116,43,40,55,2
56,276,444,196,104,40,36,51,2
55,310,476,218,87,37,33,49,2
49,318,425,217,71,35,27,43,2
40,260,392,219,70,32,26,36,2
49,310,357,250,68,33,27,39,2
58,317,447,276,67,36,32,46,2
58,299,454,257,67,38,32,46,2
61,286,474,267,90,40,34,48,2
64,308,460,258,91,39,33,48,2
55,291,465,214,92,35,30,43,2
51,275,398,197,91,32,24,35,2
51,307,468,211,89,33,27,36,2
57,340,457,237,80,33,26,36,2
57,334,484,241,90,35,28,37,2
59,313,474,246,93,34,27,37,2
60,337,503,251,101,35,27,38,2
58,315,556,258,108,30,25,37,2
60,303,573,251,97,28,24,35,2
58,293,564,247,92,27,23,34,2
64,347,567,251,90,39,28,40,2
61,345,586,251,86,40,32,39,2
63,343,470,255,88,41,30,38,2
56,332,427,243,89,43,32,40,2
56,358,412,243,94,43,33,43,2
65,308,502,231,96,37,32,52,2
67,277,436,270,107,39,35,55,2
68,261,412,259,106,38,36,56,2
68,234,440,247,112,37,35,56,2
73,243,476,258,112,37,36,58,2
60,264,424,256,121,33,33,47,2
61,306,482,215,111,26,27,42,2
60,311,523,244,115,25,26,41,2
60,337,566,247,108,26,29,39,2
54,311,552,241,104,27,28,35,2
53,345,548,240,85,28,29,31,2
56,315,569,234,96,32,32,34,2
56,351,596,232,86,35,34,38,2
56,333,572,230,91,34,31,40,2
57,330,581,227,91,36,32,38,2
59,266,548,222,97,36,31,42,2
54,318,498,252,83,34,29,42,2
51,274,460,228,85,34,28,38,2
