38,144,109,161,45,28,27,29,0
39,152,104,171,42,25,25,28,0
37,154,103,197,39,25,25,28,0
39,140,96,237,43,25,32,27,0
38,155,93,232,38,24,37,27,0
37,129,86,250,40,23,37,24,0
39,119,87,246,41,23,36,22,0
41,117,89,217,38,22,35,22,0
46,117,83,160,34,19,34,21,0
45,100,97,178,33,21,29,25,0
43,102,90,163,36,22,28,22,0
45,101,100,184,35,23,35,25,0
44,113,116,199,39,24,37,25,0
38,126,140,200,38,24,33,26,0
38,127,131,182,40,23,34,23,0
38,120,138,176,38,25,34,25,0
33,130,134,151,36,23,30,24,0
28,123,125,140,33,24,29,25,0
31,116,106,150,39,24,28,22,0
29,115,104,142,38,23,25,24,0
30,114,92,162,37,20,25,23,0
33,105,96,198,36,20,38,21,0
34,116,107,205,39,21,39,22,0
32,117,120,197,33,21,42,23,0
38,115,120,217,32,20,47,25,0
37,108,126,238,35,22,47,24,0
34,103,123,224,42,22,36,26,0
33,90,110,214,41,20,39,24,0
33,115,89,234,42,21,40,25,0
29,126,108,233,44,23,36,25,0
29,145,104,189,41,22,42,24,0
31,190,108,179,37,24,44,24,0
32,208,107,188,37,24,42,27,0
33,197,112,226,38,23,36,26,0
30,207,98,221,38,21,35,24,0
31,205,109,255,38,23,30,25,0
32,174,104,244,37,20,31,24,0
31,152,110,276,40,22,34,23,0
29,145,110,248,40,22,36,22,0
29,127,113,239,37,20,37,21,0
29,142,114,204,37,21,35,23,0
30,151,120,205,36,21,33,23,0
30,156,124,145,31,20,30,21,0
31,170,125,132,29,22,28,22,0
30,172,127,216,35,23,32,24,0
31,153,130,219,35,21,32,21,0
29,145,124,229,36,21,30,21,0
30,149,124,278,42,21,28,22,0
28,129,118,280,42,20,33,20,0
29,126,126,219,39,20,34,19,0
28,124,121,218,37,20,36,18,0
28,131,133,206,36,21,39,20,0
31,138,126,130,28,20,39,22,0
32,137,128,102,27,19,37,23,0
32,174,114,94,25,17,31,24,0
30,181,104,85,25,18,28,24,0
29,174,90,78,25,17,26,25,0
24,172,89,70,24,19,27,23,0
26,175,87,51,20,20,31,23,0
24,132,82,47,21,21,32,23,0
25,129,94,34,21,21,31,24,0
25,118,81,32,19,22,30,23,0
28,118,107,33,21,23,37,30,0
28,131,110,31,22,24,32,30,0
36,142,116,31,21,24,33,31,0
37,129,107,30,22,25,33,33,0
43,132,110,30,23,25,33,37,0
43,115,94,39,24,21,24,34,0
45,101,93,36,24,20,22,37,0
42,106,85,39,23,20,21,38,0
46,131,94,41,22,20,22,38,0
45,135,92,41,22,22,21,38,0
47,136,98,31,20,21,22,36,0
45,139,94,31,21,22,23,35,0
44,124,97,27,22,21,22,31,0
41,130,95,22,22,21,22,30,0
36,140,100,22,23,19,48,26,0
38,152,91,27,25,24,58,32,0
43,143,89,26,25,24,68,31,0
44,149,87,27,25,24,79,33,0
45,129,72,26,25,24,90,37,0
45,115,85,27,24,24,80,36,0
37,90,76,29,23,21,77,30,0
33,93,78,30,24,22,73,33,0
33,90,81,29,23,24,65,33,0
35,78,84,32,24,23,49,30,0
36,76,70,32,24,24,47,32,0
38,82,72,27,23,24,47,32,0
37,95,72,29,23,23,42,30,0
33,91,72,27,24,23,36,28,0
29,92,73,37,24,23,36,26,0
29,91,83,52,25,24,37,23,0
29,91,90,105,33,22,42,22,0
28,85,92,127,33,21,48,22,0
28,87,90,137,38,21,50,22,0
31,108,107,223,42,23,51,23,0
29,111,95,225,42,21,51,23,0
26,111,91,214,37,22,42,23,0
26,108,95,222,38,22,30,24,0
26,109,96,221,34,21,33,23,0
23,92,77,138,27,19,34,21,0
24,90,85,178,36,20,34,23,0
25,89,88,195,40,19,38,22,0
25,82,99,228,41,20,47,22,0
28,81,100,256,44,20,45,23,0
26,90,101,281,45,20,49,23,0
26,116,95,257,42,22,50,21,0
25,117,97,253,39,30,91,24,0
24,117,91,209,38,35,95,24,0
24,115,93,177,34,35,103,25,0
25,115,95,152,33,37,106,27,0
27,103,118,146,32,36,109,28,0
28,98,122,123,28,31,87,26,0
30,101,123,145,31,27,85,27,0
28,131,128,144,32,26,84,27,0
27,123,126,131,33,24,80,26,0
27,111,112,135,32,26,77,27,0
26,120,108,132,32,24,65,25,0
25,115,119,99,28,23,64,22,0
26,80,117,83,25,23,53,22,0
33,123,122,60,24,21,55,22,0
39,132,118,47,21,21,58,23,0
38,141,124,64,21,21,71,23,0
41,146,102,79,22,21,64,26,0
42,152,93,83,21,23,64,29,0
41,155,89,85,20,23,60,28,0
36,154,90,85,20,20,54,26,0
37,137,84,71,21,20,34,26,0
35,143,98,53,21,19,33,24,0
34,147,103,48,21,18,33,19,0
32,115,100,48,27,19,36,22,0
30,134,183,78,32,22,37,21,0
29,144,193,77,31,22,37,20,0
27,138,198,91,32,23,39,21,0
26,134,197,92,31,23,35,24,0
23,132,197,91,28,22,28,22,0
22,113,125,65,22,18,24,23,0
27,110,110,67,26,20,23,23,0
27,111,90,47,26,20,21,23,0
26,110,95,112,27,21,23,21,0
31,130,104,114,26,21,26,24,0
31,127,106,117,30,21,27,25,0
28,130,98,119,28,23,29,28,0
30,136,115,118,27,23,29,28,0
30,139,122,64,26,22,25,27,0
28,136,129,60,26,21,29,27,0
29,130,122,52,23,22,30,26,0
30,131,129,81,24,20,31,23,0
29,139,115,95,25,21,30,25,0
30,133,100,97,25,20,31,27,0
28,128,92,111,24,21,27,26,0
32,146,93,120,24,22,27,26,0
32,148,82,110,24,20,24,29,0
34,134,98,103,25,20,25,29,0
36,135,109,118,27,20,24,28,0
36,122,109,111,28,20,24,29,0
34,116,119,115,28,19,22,28,0
36,105,123,106,26,20,22,26,0
33,99,113,117,26,22,20,23,0
32,98,109,104,25,23,21,24,0
32,99,103,114,26,22,20,21,0
34,78,88,110,28,21,21,23,0
31,71,89,129,29,19,21,22,0
32,91,104,128,28,19,22,23,0
34,103,108,128,28,20,21,24,0
36,109,129,244,35,24,23,25,0
32,111,130,246,34,27,25,26,0
33,113,125,258,37,27,27,27,0
32,96,109,260,38,27,34,26,0
29,92,105,264,38,25,35,24,0
28,96,89,173,34,22,34,22,0
28,104,96,248,43,19,40,19,0
27,102,98,249,43,20,39,19,0
26,101,98,252,55,25,64,24,0
24,100,95,261,66,60,111,28,0
26,84,95,258,69,105,205,39,0
26,73,99,194,70,108,210,38,0
27,72,113,242,75,110,217,39,0
26,83,115,247,73,111,225,38,0
28,77,127,249,78,99,217,37,0
25,73,124,270,79,50,141,27,0
25,82,115,276,77,45,135,29,0
27,82,106,226,74,44,128,29,0
27,83,104,220,71,38,104,25,0
28,84,107,251,56,32,81,26,0
26,94,99,238,53,31,67,26,0
26,94,102,227,50,27,59,24,0
24,106,103,222,54,25,62,23,0
26,99,116,243,59,26,66,25,0
24,110,109,225,61,25,67,25,0
24,119,108,215,59,25,67,24,0
23,128,113,221,63,26,67,26,0
24,124,110,273,62,23,61,26,0
25,123,97,252,55,21,45,25,0
26,107,80,235,52,22,41,23,0
26,92,91,233,83,27,43,23,0
44,95,82,227,82,26,42,22,0
45,102,91,184,80,31,41,27,0
86,118,102,204,88,31,46,30,0
92,118,104,191,88,30,48,36,0
94,128,115,212,59,28,51,37,0
87,122,127,207,58,28,56,38,0
88,117,119,176,52,24,53,35,0
59,110,115,152,37,24,51,39,0
56,122,123,157,35,25,51,40,0
54,138,119,117,31,24,49,40,0
57,139,120,174,33,25,45,39,0
59,156,143,189,33,25,47,40,0
50,167,147,200,37,24,46,36,0
42,166,148,199,38,25,41,30,0
57,147,137,194,40,23,46,43,0
57,134,124,146,35,24,47,45,0
54,115,96,122,33,26,49,47,0
56,103,81,95,28,25,48,46,0
60,98,95,98,27,24,56,49,0
48,97,97,205,30,25,48,39,0
46,104,99,208,32,25,48,39,0
46,108,107,211,33,22,43,36,0
44,99,112,216,35,23,43,36,0
42,103,107,210,36,24,49,34,0
40,104,111,117,30,22,57,32,0
40,100,112,111,28,23,57,26,0
36,93,101,108,26,23,59,27,0
37,105,102,85,25,23,61,30,0
42,107,86,82,23,21,50,26,0
44,114,76,69,23,22,45,30,0
46,122,87,61,24,20,41,32,0
44,123,86,51,24,20,37,31,0
41,113,85,57,22,20,33,27,0
37,119,107,67,23,22,31,27,0
35,114,112,76,27,21,25,23,0
31,108,109,77,25,21,23,19,0
32,106,109,97,27,22,30,18,0
34,110,105,105,28,24,40,19,0
29,93,75,100,27,23,41,18,0
28,84,78,94,24,23,46,21,0
25,78,67,94,25,22,45,21,0
31,77,67,73,26,22,47,24,0
38,77,67,42,24,20,38,24,0
40,80,94,37,23,20,39,25,0
68,107,89,30,22,20,36,29,0
110,122,92,30,24,20,38,35,0
113,146,93,27,21,18,29,33,0
113,152,95,28,23,18,31,34,0
113,153,69,27,22,18,30,34,0
100,134,66,25,22,20,33,32,0
53,126,73,23,20,19,34,28,0
43,94,71,22,19,18,41,27,0
36,74,69,30,22,19,43,27,0
33,89,74,73,25,19,45,26,0
48,88,69,75,27,18,42,26,0
48,77,57,79,29,19,43,25,0
49,95,58,86,31,21,37,27,0
48,109,67,102,28,21,34,26,0
49,100,69,81,26,21,37,29,0
33,107,70,95,25,22,45,26,0
30,120,83,94,22,21,43,26,0
30,121,95,90,22,21,44,28,0
33,116,100,73,21,21,45,31,0
32,117,98,70,20,22,44,35,0
39,118,112,49,21,21,37,36,0
44,107,107,47,22,21,36,39,0
46,101,95,42,21,21,35,38,0
44,113,94,34,20,20,35,36,0
43,105,95,33,20,20,29,30,0
38,97,86,27,18,19,25,28,0
33,101,90,22,17,19,24,24,0
30,102,91,26,20,19,28,23,0
30,93,80,27,20,19,28,22,0
31,107,85,28,21,17,29,20,0
28,118,96,30,22,18,28,22,0
28,132,92,30,23,18,28,20,0
28,129,95,27,20,18,22,20,0
31,120,96,26,23,17,22,22,0
33,112,88,28,21,19,21,22,0
33,118,83,25,21,18,21,22,0
36,105,88,31,23,21,20,24,0
35,99,83,31,23,20,22,24,0
36,97,101,33,22,20,23,24,0
37,95,104,33,23,18,22,25,0
37,83,101,34,22,20,21,27,0
40,77,94,30,21,19,28,25,0
42,82,105,34,23,21,28,26,0
40,84,90,34,23,21,29,25,0
39,100,85,32,23,22,28,23,0
38,93,98,33,22,21,30,22,0
30,119,101,31,20,19,23,21,0
30,117,92,33,23,19,19,22,0
30,126,91,34,23,21,19,22,0
29,112,92,33,24,20,18,20,0
31,122,67,32,25,21,19,20,0
31,110,71,33,24,24,20,23,0
32,164,79,28,20,23,20,29,0
32,164,86,38,24,23,21,31,0
33,170,93,40,24,23,21,32,0
34,164,98,42,23,23,20,34,0
36,161,91,41,25,23,23,35,0
34,117,80,41,25,22,23,29,0
36,118,76,36,23,21,23,29,0
35,111,71,42,23,21,24,28,0
33,108,65,41,24,21,22,26,0
32,98,79,66,24,18,21,25,0
35,81,84,93,25,19,22,27,0
34,73,86,107,26,20,22,28,0
33,79,86,122,28,20,26,31,0
33,96,97,126,29,21,28,30,0
35,101,86,133,28,22,28,33,0
35,115,99,122,26,23,27,34,0
35,137,100,112,25,22,30,33,0
36,136,103,113,26,23,26,30,0
38,131,95,114,26,22,29,32,0
38,129,95,113,25,21,28,32,0
34,119,90,114,26,19,27,28,0
35,92,107,190,31,25,30,30,0
35,88,101,194,29,24,30,31,0
35,82,98,209,30,24,25,27,0
32,83,97,217,32,24,24,25,0
31,79,94,219,33,25,25,25,0
26,69,79,169,28,17,23,23,0
27,70,95,167,28,19,23,25,0
27,88,111,145,27,19,23,24,0
34,93,119,196,33,20,24,26,0
33,95,121,225,36,20,26,24,0
33,106,120,243,38,21,22,24,0
36,105,108,239,36,21,22,22,0
37,108,96,243,40,21,23,27,0
33,106,94,189,36,22,22,27,0
35,103,87,211,35,22,21,29,0
36,95,83,199,38,22,22,29,0
31,94,90,202,39,24,22,29,0
32,73,84,200,36,24,22,29,0
33,76,89,202,34,22,22,28,0
31,84,94,151,31,22,21,27,0
30,90,95,196,30,22,20,27,0
33,91,92,210,34,18,21,28,0
33,87,97,217,34,18,21,28,0
32,83,102,217,35,18,21,27,0
33,75,94,217,35,19,21,28,0
36,66,89,237,37,19,21,28,0
35,68,99,229,35,20,21,27,0
30,70,97,236,37,21,21,25,0
31,107,86,246,37,21,19,26,0
29,118,86,241,39,20,21,26,0
28,120,89,165,33,22,20,27,0
25,119,75,151,32,20,19,25,0
26,118,72,204,32,21,18,27,0
26,82,77,198,34,22,21,26,0
29,82,97,219,30,27,21,27,0
29,76,101,216,30,26,21,27,0
30,81,107,257,35,28,23,28,0
33,82,108,212,33,28,27,28,0
33,84,98,223,35,27,26,28,0
35,99,86,208,36,23,25,27,0
34,108,78,210,36,23,36,32,0
39,118,112,200,32,23,38,35,0
36,119,116,191,31,22,37,33,0
37,120,124,168,26,22,37,35,0
37,108,125,195,28,24,40,40,0
39,105,133,257,34,24,32,37,0
34,99,103,238,36,23,36,34,0
38,101,101,237,36,23,43,34,0
40,98,96,237,36,24,46,32,0
38,83,92,228,31,23,46,24,0
38,78,94,226,33,24,55,28,0
37,65,91,232,31,24,52,28,0
36,87,95,231,32,24,47,28,0
35,90,97,243,33,24,45,29,0
36,91,97,236,36,24,46,28,0
34,89,88,177,31,24,34,23,0
34,105,88,161,32,23,33,22,0
33,96,107,190,34,25,38,23,0
30,104,108,209,40,26,37,22,0
30,109,108,199,39,25,34,23,0
31,116,119,203,42,25,43,25,0
31,114,129,257,44,26,43,26,0
32,113,112,271,43,25,39,26,0
34,113,105,252,39,22,39,25,0
31,119,105,281,40,23,39,25,0
31,122,92,273,36,20,28,24,0
32,112,99,224,33,18,28,27,0
32,120,97,196,33,17,26,27,0
35,118,105,213,35,19,26,31,0
34,111,104,211,37,18,28,30,0
33,105,109,249,39,20,26,31,0
33,120,93,252,36,20,24,28,0
31,108,89,247,35,22,24,27,0
27,98,82,241,32,21,22,25,0
28,98,78,220,31,21,19,25,0
27,99,75,205,28,20,25,24,0
27,78,77,194,30,21,25,25,0
28,75,85,209,30,20,25,25,0
26,83,81,193,30,22,25,24,0
28,88,90,191,27,23,26,25,0
28,90,91,200,31,24,21,26,0
25,91,96,213,31,25,21,23,0
29,91,104,233,33,27,25,27,0
30,92,111,248,33,26,24,26,0
33,120,113,245,34,26,24,26,0
33,120,114,252,36,25,25,25,0
34,120,106,244,35,23,25,27,0
31,120,98,239,34,21,21,23,0
31,116,95,224,33,20,22,23,0
26,86,84,225,36,21,21,21,0
28,100,75,182,30,20,18,20,0
29,107,83,216,31,21,19,20,0
30,118,92,236,37,21,21,22,0
28,122,94,239,38,22,20,21,0
30,121,94,247,35,21,21,22,0
28,103,100,274,41,22,21,22,0
30,116,110,259,43,23,21,22,0
27,109,102,219,38,21,23,21,0
29,110,102,256,41,21,25,22,0
27,106,113,262,47,22,25,23,0
29,107,114,252,44,22,26,23,0
26,94,104,238,41,21,26,22,0
27,93,111,296,46,23,25,22,0
27,105,112,271,44,21,23,22,0
31,107,106,264,41,23,24,22,0
28,109,97,244,39,21,23,21,0
30,102,93,301,44,23,22,21,0
29,99,83,233,35,22,23,21,0
28,83,76,241,34,24,22,22,0
27,95,74,240,34,22,22,24,0
29,95,75,284,41,23,22,26,0
29,91,77,239,44,23,22,27,0
32,97,68,247,46,22,22,31,0
37,98,75,263,50,23,24,34,0
36,91,77,259,50,25,24,32,0
37,92,84,237,50,25,26,32,0
37,94,87,230,45,24,29,31,0
37,86,99,255,44,24,29,27,0
32,103,100,240,45,23,28,24,0
33,97,96,236,43,21,27,24,0
30,95,96,208,37,21,26,22,0
29,94,106,247,37,22,22,23,0
24,124,126,229,36,23,21,21,0
25,123,141,231,34,23,21,23,0
25,143,146,227,34,22,20,24,0
32,146,152,275,40,26,23,30,0
36,151,146,245,39,25,27,31,0
42,128,135,240,43,24,32,35,0
44,122,144,215,41,26,35,37,0
48,112,148,262,43,27,37,38,0
44,129,144,236,39,24,35,34,0
43,134,140,244,39,24,34,35,0
39,138,128,234,35,24,28,30,0
38,132,117,270,36,21,26,31,0
32,121,106,231,37,23,25,29,0
33,106,108,211,35,24,26,32,0
29,93,114,258,40,26,24,29,0
30,93,116,265,39,26,25,29,0
28,110,105,245,41,27,22,26,0
28,113,107,247,40,25,22,27,0
28,110,97,246,39,27,24,24,0
32,112,89,232,37,25,24,27,0
31,114,89,223,37,26,24,27,0
32,109,76,204,34,24,23,26,0
34,153,91,213,31,23,23,25,0
34,154,99,205,33,20,20,26,0
32,158,105,130,30,21,20,25,0
36,153,103,139,30,19,19,26,0
37,146,105,205,34,19,18,26,0
37,135,92,199,38,23,20,26,0
35,131,86,204,38,23,21,25,0
39,135,74,211,36,23,22,33,0
35,146,73,248,40,24,22,33,0
34,145,73,206,37,23,23,34,0
34,115,79,221,35,21,23,34,0
40,117,85,227,35,22,23,37,0
37,113,87,220,34,22,21,29,0
41,125,100,222,36,22,21,28,0
41,125,99,212,36,22,24,29,0
42,135,101,179,33,21,24,29,0
41,143,106,194,35,24,25,32,0
42,142,116,206,36,23,29,31,0
39,135,112,215,37,22,30,31,0
40,150,125,231,36,22,28,30,0
39,147,134,280,44,23,30,30,0
37,173,139,288,43,21,28,24,0
32,186,141,300,43,22,25,25,0
31,182,144,271,40,23,24,27,0
28,170,133,280,45,25,23,28,0
30,161,119,232,39,25,21,28,0
34,145,124,214,39,25,20,31,0
36,154,136,202,41,24,20,31,0
36,169,135,212,41,23,19,29,0
35,171,138,192,36,22,21,26,0
35,172,137,229,36,21,22,25,0
28,151,118,221,37,20,23,25,0
35,152,86,209,35,19,24,24,0
35,129,83,195,32,22,24,25,0
36,131,77,202,34,20,22,25,0
36,129,77,172,36,19,20,23,0
40,142,93,169,36,22,23,24,0
36,108,103,218,39,23,22,27,0
36,134,129,216,39,21,25,30,0
36,145,132,201,35,20,26,30,0
35,159,148,193,33,21,26,32,0
30,154,144,196,31,18,24,29,0
31,156,141,135,27,18,23,28,0
33,157,118,119,26,18,19,24,0
33,149,120,171,29,20,19,26,0
32,133,105,193,33,24,20,25,0
37,128,103,193,33,25,21,31,0
35,145,115,221,35,25,21,33,0
43,133,117,278,39,26,25,37,0
46,126,112,258,38,26,26,35,0
46,168,120,276,35,25,28,37,0
44,171,129,276,40,23,28,32,0
43,161,120,289,41,23,40,29,0
39,157,127,245,38,23,39,28,0
37,163,127,246,38,23,40,29,0
39,121,116,210,38,22,38,28,0
40,118,114,225,37,22,38,29,0
39,123,128,190,35,24,25,29,0
40,127,113,178,34,23,26,27,0
39,119,120,203,35,27,36,27,0
40,134,190,209,36,26,37,25,0
41,138,189,199,33,26,38,24,0
41,133,191,196,32,25,39,27,0
39,114,204,198,35,25,45,29,0
46,117,204,163,31,22,36,30,0
55,172,200,201,35,25,37,41,0
60,182,230,212,35,26,37,41,0
65,188,251,209,35,25,36,41,0
65,201,244,203,41,44,39,40,0
63,204,241,192,48,68,54,42,0
63,188,205,134,62,145,60,31,0
64,207,178,107,64,153,68,35,0
68,216,151,194,68,157,78,33,0
68,232,163,214,66,157,91,36,0
69,225,163,225,62,148,92,36,0
70,222,149,247,45,79,91,37,0
71,222,139,255,43,67,88,38,0
64,234,122,196,52,134,87,41,0
67,211,104,174,49,140,79,39,0
74,230,112,201,51,165,79,46,0
78,217,123,211,57,171,82,50,0
73,194,117,217,61,172,83,47,0
75,187,128,248,52,124,76,48,0
70,193,127,274,55,116,68,46,0
60,177,128,256,54,79,76,40,0
44,177,130,270,51,63,78,35,0
43,171,135,292,51,108,83,36,0
35,138,122,269,49,111,88,32,0
35,127,135,313,56,114,90,35,0
50,129,139,316,62,114,77,40,0
58,119,160,315,64,115,78,43,0
56,110,166,315,64,74,77,41,0
59,116,185,322,67,103,86,47,0
61,117,179,298,76,128,114,52,0
50,110,175,317,75,133,121,54,0
41,106,153,309,76,133,121,51,0
46,125,153,367,81,130,120,53,0
42,126,125,373,80,110,120,50,0
43,157,126,355,71,99,97,43,0
42,157,131,343,75,104,86,35,0
43,156,152,367,79,104,79,35,0
37,149,165,300,75,108,76,30,0
39,159,172,291,78,111,64,27,0
39,134,178,299,74,103,58,27,0
60,141,195,293,70,109,65,34,0
57,145,195,308,73,117,66,35,0
62,146,185,340,76,159,65,38,0
63,146,199,352,82,186,64,38,0
63,160,203,333,81,181,60,38,0
46,152,195,327,79,173,73,34,0
47,155,215,261,71,169,78,34,0
49,150,215,190,66,164,80,33,0
53,151,199,179,51,129,77,34,0
56,151,199,186,53,148,76,37,0
54,160,191,213,59,158,58,37,0
53,150,159,218,62,160,48,37,0
60,167,154,211,61,148,41,40,0
64,191,150,185,63,150,42,46,0
76,231,216,169,58,134,42,49,0
79,229,228,131,53,121,36,50,0
79,243,250,103,44,114,39,52,0
73,234,251,101,48,97,50,49,0
77,207,257,86,48,129,48,44,0
66,147,210,88,46,124,50,38,0
63,148,193,64,42,124,50,36,0
69,131,155,63,43,129,48,34,0
73,131,161,54,32,116,35,42,0
60,139,161,59,29,67,35,43,0
55,137,151,57,29,60,38,42,0
63,136,168,57,28,54,46,43,0
64,150,174,60,29,49,49,45,0
63,162,162,61,28,48,54,41,0
71,152,153,54,29,48,59,40,0
71,148,143,50,29,90,56,42,0
67,146,127,58,37,95,49,40,0
66,117,111,62,44,111,49,39,0
65,112,109,84,50,123,40,39,0
63,137,167,101,56,162,40,43,0
63,163,242,105,58,153,36,40,0
61,161,244,110,54,157,37,39,0
53,164,251,108,49,148,35,34,0
57,149,262,91,48,176,35,31,0
46,135,229,84,45,149,34,23,0
48,134,159,97,45,145,36,28,0
47,142,198,98,46,137,36,29,0
51,160,206,100,46,136,36,30,0
44,167,195,101,43,84,36,30,0
54,167,206,183,40,68,31,31,0
58,144,221,188,42,87,30,34,0
61,136,200,198,43,89,31,38,0
59,143,229,207,43,86,37,40,0
64,139,227,210,43,85,36,41,0
62,138,223,169,44,88,36,40,0
57,146,200,163,40,58,35,36,0
58,169,222,191,42,51,32,34,0
66,181,194,185,43,49,31,36,0
60,182,217,199,42,53,44,36,0
57,181,222,192,39,46,46,36,0
58,174,232,242,43,44,46,35,0
52,169,214,225,39,41,47,33,0
39,153,227,225,40,102,42,28,0
41,156,206,226,40,102,31,27,0
43,156,198,227,39,104,27,31,0
40,154,180,205,39,105,26,29,0
38,143,153,271,46,106,33,28,0
40,125,146,304,48,55,32,28,0
35,117,147,300,46,47,30,29,0
30,138,148,294,46,44,32,28,0
32,142,161,284,43,43,32,31,0
33,132,163,215,34,41,25,30,0
31,129,134,167,27,28,26,29,0
34,127,129,166,32,40,26,29,0
33,91,127,214,34,38,26,27,0
29,85,132,233,41,40,23,24,0
30,109,133,242,41,42,24,24,0
34,117,137,274,45,47,24,25,0
35,118,153,278,48,38,25,26,0
34,136,167,269,52,38,23,24,0
39,137,161,280,50,37,38,28,0
39,114,158,273,54,35,44,28,0
37,104,156,260,53,36,45,25,0
34,103,141,310,50,37,47,23,0
37,94,125,312,51,37,49,26,0
33,100,106,289,46,35,38,22,0
32,104,116,299,43,39,37,23,0
32,107,107,321,47,41,35,24,0
33,120,115,271,44,45,32,24,0
30,131,124,243,40,46,30,22,0
32,127,138,233,40,46,33,22,0
33,123,133,306,55,50,30,22,0
34,135,135,292,53,43,32,21,0
37,132,126,326,57,39,37,25,0
37,123,126,339,58,38,38,23,0
36,138,141,345,59,38,35,24,0
35,146,149,278,48,29,34,24,0
33,144,152,256,47,36,33,25,0
33,148,163,204,42,36,26,23,0
36,142,161,203,44,35,26,26,0
40,141,171,257,45,36,27,28,0
45,134,163,243,40,34,26,28,0
48,120,167,240,39,26,25,27,0
48,107,175,247,42,30,23,31,0
50,156,194,229,37,32,23,30,0
47,168,181,139,34,32,24,27,0
42,183,181,130,32,32,28,26,0
37,194,173,114,30,31,51,26,0
41,196,157,105,28,41,70,41,0
44,196,160,116,26,40,74,44,0
44,207,157,112,27,40,75,46,0
55,222,171,144,31,40,75,49,0
56,217,179,208,34,41,64,49,0
55,219,181,210,31,26,52,35,0
51,206,165,226,36,28,51,33,0
50,194,173,235,35,30,52,32,0
46,218,171,274,38,30,53,29,0
50,251,168,237,37,30,58,28,0
47,260,170,237,40,31,53,28,0
45,245,164,260,45,30,51,26,0
47,227,145,260,46,27,48,24,0
40,176,128,241,45,25,45,22,0
34,142,121,240,45,24,33,21,0
31,121,112,241,43,21,29,19,0
34,134,100,207,36,20,22,21,0
40,143,119,200,34,22,20,24,0
40,196,130,145,30,20,21,23,0
39,178,137,135,27,19,21,24,0
43,178,139,119,26,19,21,23,0
44,166,141,76,26,18,21,24,0
41,175,126,63,27,19,23,25,0
46,121,111,75,27,19,23,26,0
47,127,96,85,27,19,24,27,0
46,126,94,101,29,20,23,27,0
42,132,89,100,28,21,24,27,0
39,119,85,101,27,21,22,23,0
37,120,88,97,27,22,24,29,0
40,117,92,88,27,22,25,30,0
41,130,92,79,24,21,25,31,0
42,123,88,77,22,19,26,30,0
48,132,97,76,23,21,28,39,0
48,137,126,91,25,21,25,41,0
45,136,127,92,23,19,29,41,0
49,125,170,102,27,22,32,45,0
50,129,173,122,31,21,31,45,0
45,110,172,122,31,19,29,38,0
41,118,156,195,32,20,30,31,0
48,133,166,213,36,23,26,33,0
45,138,131,217,34,24,24,33,0
47,138,152,234,37,25,24,33,0
44,140,158,254,38,25,26,33,0
44,120,156,204,37,23,25,35,0
37,121,142,189,34,23,23,33,0
35,114,138,186,38,22,23,28,0
30,116,125,160,34,21,22,27,0
32,118,118,175,35,25,24,28,0
30,111,124,176,34,26,24,25,0
31,83,137,174,33,25,25,28,0
30,89,142,166,29,26,29,27,0
29,81,128,157,29,26,29,27,0
29,72,121,114,25,22,30,24,0
27,81,111,103,23,21,31,22,0
27,88,94,188,37,24,35,22,0
27,80,73,203,36,25,31,21,0
27,85,82,216,38,24,40,21,0
27,94,83,215,38,25,41,21,0
32,91,90,217,41,27,42,25,0
32,92,109,217,35,24,40,22,0
35,97,124,218,39,22,41,24,0
35,94,131,212,37,23,32,24,0
34,95,136,208,37,23,28,24,0
34,103,171,207,36,23,27,21,0
35,98,191,136,30,23,25,23,0
35,104,201,107,25,22,24,26,0
41,112,217,95,26,22,24,26,0
44,118,222,98,25,20,24,28,0
48,130,198,82,23,19,24,27,0
53,137,176,75,23,19,22,27,0
54,149,163,75,23,18,21,28,0
50,146,170,72,23,21,22,30,0
50,138,163,63,22,20,21,29,0
45,120,176,59,21,20,20,30,0
38,119,169,73,22,21,23,30,0
36,93,164,104,30,24,35,34,0
39,97,130,105,32,27,42,39,0
35,92,123,108,32,26,42,39,0
35,92,96,114,37,28,48,39,0
33,104,97,120,37,28,48,38,0
35,120,102,182,39,26,41,34,0
31,112,99,187,38,22,36,28,0
33,128,118,190,39,23,41,28,0
35,155,131,196,36,23,38,27,0
38,153,132,225,38,24,38,28,0
47,143,122,169,30,24,39,30,0
49,142,121,187,32,23,38,27,0
49,133,113,187,30,23,32,27,0
49,102,101,181,32,20,27,30,0
49,108,116,185,32,21,26,28,0
43,103,123,203,34,20,22,27,0
41,111,155,186,36,20,22,31,0
42,111,152,194,40,24,20,29,0
46,145,164,216,41,25,19,26,0
45,130,151,177,39,24,18,29,0
41,139,155,153,39,24,21,27,0
41,136,120,167,35,26,24,28,0
42,139,123,162,32,22,26,28,0
38,117,106,145,30,24,26,31,0
47,132,108,202,37,25,28,33,0
50,129,112,196,37,25,27,31,0
50,142,149,190,36,24,24,30,0
68,136,143,197,35,25,24,34,0
79,127,190,185,33,25,26,44,0
78,118,195,129,26,25,24,45,0
80,138,193,130,25,26,26,48,0
82,132,166,114,23,25,27,49,0
75,190,188,85,23,26,28,52,0
67,213,163,81,25,24,25,43,0
69,228,163,54,23,24,26,46,0
69,218,164,49,22,22,27,47,0
68,225,174,40,22,22,27,45,0
65,202,156,50,23,19,28,41,0
71,182,137,83,29,20,30,41,0
73,173,134,86,30,19,29,38,0
70,176,140,87,30,19,25,32,0
73,172,133,91,30,20,29,34,0
71,152,130,100,30,20,25,32,0
64,148,120,76,23,18,25,31,0
69,150,125,161,34,26,35,38,0
75,156,119,226,40,29,41,49,0
77,166,124,239,41,28,39,49,0
83,174,125,281,48,31,40,50,0
85,176,133,287,50,33,48,51,0
76,175,126,255,45,28,41,48,0
71,168,112,215,42,26,44,42,0
63,160,114,230,44,27,46,42,0
75,146,108,176,38,22,47,49,0
72,140,114,184,40,22,75,50,0
70,136,118,185,40,22,84,50,0
67,157,133,185,44,22,98,48,0
70,155,148,174,45,40,109,51,0
50,154,152,174,46,41,111,45,0
55,168,149,171,43,42,92,43,0
55,174,158,173,44,42,84,41,0
56,149,169,197,42,42,63,40,0
52,158,170,208,44,27,47,35,0
51,168,188,214,45,31,49,40,0
46,158,212,234,49,31,66,41,0
48,150,208,238,51,35,111,46,0
46,153,194,223,48,34,123,45,0
48,144,172,202,42,34,122,46,0
47,137,162,196,38,28,123,44,0
52,134,143,206,35,30,121,41,0
51,129,134,206,38,27,97,37,0
54,133,133,205,39,27,88,43,0
53,120,149,259,47,28,87,41,0
54,128,141,270,49,29,82,36,0
48,166,142,275,49,25,74,37,0
48,159,154,313,51,25,56,34,0
46,159,175,332,52,25,56,26,0
49,165,172,302,50,24,60,31,0
44,150,180,338,62,27,62,33,0
46,118,164,316,62,28,62,33,0
48,130,151,273,58,27,60,34,0
50,125,123,262,59,27,51,32,0
49,113,108,262,56,27,42,28,0
49,128,85,197,42,24,42,25,0
46,121,83,192,40,24,41,25,0
43,119,81,216,39,26,49,25,0
38,122,81,239,37,26,61,24,0
43,145,84,223,38,26,63,27,0
41,138,85,232,39,25,69,27,0
43,148,92,269,45,25,78,27,0
45,193,123,251,46,25,78,28,0
51,189,118,216,44,25,71,29,0
46,178,120,222,44,27,95,32,0
47,188,119,217,44,29,98,31,0
43,187,111,164,38,28,93,30,0
41,138,75,161,36,27,92,29,0
35,139,72,130,35,27,92,29,0
36,143,79,116,29,23,67,25,0
34,143,85,105,29,23,54,31,0
33,138,81,92,27,24,60,33,0
36,138,80,79,28,25,59,32,0
34,133,83,86,27,26,62,34,0
35,122,73,78,28,29,77,34,0
36,99,62,71,26,31,82,31,0
46,86,64,73,27,31,84,37,0
50,91,67,69,26,30,86,39,0
49,105,72,57,25,29,84,37,0
47,113,83,46,24,27,74,37,0
50,116,88,44,24,23,75,36,0
44,152,98,43,24,23,66,33,0
40,148,97,43,23,21,58,31,0
40,139,94,42,24,21,57,31,0
40,162,120,42,23,21,47,28,0
38,165,122,36,23,21,35,29,0
39,145,118,30,22,19,37,28,0
50,179,125,33,23,21,39,31,0
51,191,130,36,21,20,35,30,0
52,169,107,34,22,20,35,31,0
56,195,117,38,22,20,36,30,0
59,195,119,38,21,20,29,29,0
47,193,121,35,21,19,24,24,0
49,182,122,41,24,20,24,28,0
50,183,125,46,23,20,25,27,0
52,172,112,46,25,21,23,31,0
46,172,107,48,27,21,22,29,0
47,139,100,49,27,23,23,32,0
43,138,92,43,25,22,24,29,0
45,133,79,36,24,23,22,30,0
35,121,90,35,22,22,23,28,0
35,113,86,35,21,23,23,29,0
37,114,79,35,21,22,25,27,0
40,120,76,33,21,23,30,27,0
40,131,77,35,23,23,31,30,0
41,139,58,41,24,22,32,29,0
40,157,69,44,25,23,32,29,0
39,162,67,69,24,24,30,28,0
43,162,71,74,29,24,24,27,0
41,151,67,75,28,24,24,26,0
40,135,100,80,27,24,21,24,0
41,107,99,78,27,23,23,24,0
39,98,104,58,27,21,22,25,0
34,114,103,52,23,21,23,24,0
35,131,105,52,24,20,27,22,0
34,140,83,66,25,21,46,25,0
40,156,99,67,23,21,48,27,0
42,157,100,70,23,21,53,26,0
53,166,104,71,23,20,53,25,0
52,163,108,72,23,34,69,35,0
53,156,102,47,23,39,74,35,0
49,148,89,62,29,40,76,35,0
50,153,89,78,31,42,76,35,0
40,148,90,78,31,43,76,36,0
50,142,110,80,32,34,62,34,0
51,139,131,81,33,29,42,31,0
55,135,129,70,27,26,32,31,0
55,127,126,73,25,24,28,31,0
53,105,133,76,27,23,26,32,0
44,135,140,74,25,21,21,26,0
46,138,123,73,24,21,24,32,0
49,143,122,72,24,21,26,34,0
47,148,153,47,24,20,24,38,0
51,154,158,46,24,22,24,40,0
51,124,137,40,25,22,27,40,0
51,140,140,39,22,21,26,38,0
45,137,154,90,28,22,26,35,0
47,134,125,96,28,22,27,32,0
46,123,116,95,28,20,27,30,0
45,127,116,98,29,21,24,27,0
41,113,116,97,30,20,21,24,0
49,174,103,67,27,20,22,27,0
53,170,112,65,28,23,24,29,0
53,180,126,66,26,23,26,29,0
56,185,123,65,27,24,29,32,0
55,172,128,66,26,24,30,33,0
48,136,127,101,28,24,30,33,0
45,175,128,100,29,21,27,33,0
42,167,137,194,40,24,28,32,0
39,165,135,207,41,23,27,31,0
38,176,130,218,46,26,27,31,0
34,165,125,211,45,26,25,29,0
38,157,114,268,49,26,27,28,0
38,159,79,225,42,26,26,30,0
37,160,86,260,47,26,24,30,0
36,151,93,257,44,24,26,29,0
37,141,110,268,45,26,28,33,0
31,125,115,250,42,26,26,31,0
30,129,111,253,40,24,26,26,0
30,130,105,212,34,25,26,25,0
36,144,107,214,35,24,25,29,0
39,142,96,206,34,23,23,27,0
43,135,98,303,42,27,29,26,0
42,128,101,298,44,28,39,28,0
43,118,100,310,46,28,41,28,0
42,101,95,314,45,28,48,25,0
38,95,120,377,55,29,52,24,0
34,94,117,281,51,36,61,26,0
33,108,123,308,56,37,59,25,0
33,112,124,299,54,38,62,28,0
30,121,123,296,54,39,58,27,0
35,132,97,262,51,39,61,29,0
35,126,97,263,48,31,53,30,0
34,125,97,239,41,29,49,30,0
31,139,114,242,42,27,44,27,0
34,142,114,234,41,27,48,27,0
33,152,119,226,34,24,41,23,0
32,161,126,225,34,28,56,21,0
34,161,118,211,33,27,59,21,0
36,144,106,198,32,27,61,24,0
37,128,104,197,32,26,61,26,0
36,109,103,105,27,26,59,27,0
40,109,93,81,26,23,45,30,0
42,160,95,64,24,23,45,31,0
58,193,118,52,22,24,48,38,0
58,225,142,45,24,23,48,38,0
60,226,151,36,25,23,48,41,0
57,254,185,34,23,21,50,40,0
67,232,188,32,24,21,50,50,0
56,216,177,31,26,23,45,49,0
53,192,162,89,25,25,42,48,0
52,196,155,108,29,24,40,46,0
54,158,109,113,32,32,35,45,0
42,152,107,121,35,36,32,34,0
37,142,99,136,37,42,29,28,0
40,141,99,120,35,43,28,28,0
45,165,91,108,31,47,31,28,0
46,155,90,104,30,43,27,29,0
45,146,85,98,25,39,24,32,0
54,157,82,103,21,33,24,34,0
57,206,109,90,21,33,25,35,0
56,197,103,105,23,34,23,34,0
57,199,110,106,20,33,25,34,0
61,209,110,104,21,34,24,34,0
57,207,137,78,24,34,27,37,0
53,179,139,76,24,33,28,38,0
50,167,154,92,26,31,27,40,0
49,166,149,91,27,31,26,40,0
44,158,152,93,28,35,25,37,0
40,192,136,94,28,34,22,32,0
38,186,116,94,29,35,23,38,0
47,189,112,49,26,33,23,36,0
46,195,118,47,24,34,25,37,0
61,222,121,41,23,29,25,39,0
63,197,121,54,22,25,25,38,0
64,180,115,56,21,24,24,30,0
59,176,97,71,27,32,25,30,0
58,171,102,83,27,32,22,28,0
44,138,110,95,28,33,24,27,0
41,137,99,103,34,35,25,29,0
44,182,128,117,36,34,23,34,0
44,180,167,119,34,24,22,34,0
48,210,180,155,37,22,24,34,0
45,206,178,201,51,24,21,33,0
45,210,198,220,50,22,22,33,0
43,186,181,225,52,25,24,33,0
41,214,149,223,52,26,22,31,0
39,198,185,203,52,32,21,32,0
45,209,205,152,40,28,23,33,0
45,197,212,124,36,29,22,32,0
42,183,211,116,34,28,19,29,0
39,153,221,114,33,29,21,28,0
35,139,172,118,30,22,21,25,0
29,115,137,121,32,25,19,22,0
27,118,92,106,31,24,19,21,0
28,158,127,93,28,31,21,21,0
30,153,112,93,28,32,24,25,0
31,162,116,78,30,34,24,26,0
28,155,121,77,29,32,24,26,0
28,151,120,89,28,35,22,26,0
27,109,94,100,27,29,22,22,0
27,117,91,97,28,26,18,20,0
29,112,110,99,26,23,20,20,0
30,122,109,110,29,24,21,24,0
32,136,134,138,32,21,22,24,0
33,152,125,140,32,18,21,25,0
39,150,167,215,36,21,21,28,0
46,155,173,225,38,20,21,38,0
52,162,181,224,37,21,21,42,0
50,154,171,206,35,22,21,42,0
51,172,180,200,37,23,22,42,0
58,193,172,141,32,22,22,44,0
61,208,191,125,29,22,21,45,0
63,206,188,115,28,22,27,47,0
64,204,194,112,27,21,28,47,0
63,190,206,107,23,20,28,48,0
53,164,187,65,23,22,29,46,0
47,142,156,45,25,21,30,39,0
44,192,157,50,24,20,23,31,0
47,223,172,51,24,21,24,32,0
47,220,185,54,24,21,25,32,0
50,227,182,56,25,19,24,32,0
45,224,182,90,25,21,23,30,0
43,185,184,87,27,22,26,32,0
54,164,176,87,28,22,27,36,0
59,203,154,91,33,22,25,36,0
64,192,159,94,31,22,28,37,0
66,201,162,80,30,21,27,37,0
63,193,174,82,28,19,25,35,0
51,197,165,80,26,18,23,31,0
46,151,157,75,20,16,23,30,0
35,181,155,79,21,18,21,27,0
31,164,145,62,22,19,22,25,0
32,183,125,63,27,19,22,25,0
34,205,125,60,27,21,21,27,0
38,234,128,59,26,23,22,32,0
37,216,132,50,25,20,20,30,0
38,214,132,48,24,20,18,31,0
40,203,137,38,20,19,20,31,0
40,188,131,41,22,18,22,32,0
32,185,125,70,26,18,22,27,0
33,193,109,77,28,20,22,29,0
33,225,111,79,29,21,24,29,0
32,224,106,81,29,21,22,28,0
35,226,112,80,29,21,20,28,0
36,194,118,58,26,21,20,26,0
38,182,127,48,24,20,21,27,0
36,146,122,42,23,19,19,26,0
34,140,115,39,23,19,21,26,0
26,104,102,36,22,18,23,21,0
30,104,92,30,23,19,25,27,0
37,121,100,38,24,21,24,27,0
44,151,146,51,26,22,25,27,0
51,151,161,61,26,25,30,32,0
61,177,192,73,29,26,28,41,0
62,180,193,73,29,25,29,43,0
62,169,185,72,28,25,29,46,0
65,154,160,65,27,24,29,47,0
65,181,163,56,25,23,25,45,0
60,164,126,47,21,22,24,39,0
58,163,119,47,20,21,21,34,0
55,193,123,43,22,20,19,29,0
46,188,119,42,23,22,18,28,0
38,162,88,43,24,20,15,24,0
31,154,84,70,26,20,16,23,0
31,158,86,73,25,21,17,22,0
24,117,83,74,23,21,17,21,0
30,106,69,75,23,19,19,22,0
29,114,69,76,19,20,20,24,0
32,117,77,52,16,21,21,25,0
32,121,82,47,15,22,20,24,0
37,149,85,44,19,22,20,25,0
33,165,92,45,20,22,20,25,0
35,163,93,42,22,21,20,22,0
37,163,91,41,24,20,20,22,0
36,155,99,43,25,19,20,22,0
36,142,101,46,26,19,21,22,0
42,142,112,48,26,19,20,22,0
42,137,117,73,28,22,21,24,0
43,142,116,68,26,22,20,22,0
43,145,111,68,27,21,19,22,0
38,131,104,74,23,20,19,24,0
32,126,95,75,25,20,18,23,0
33,123,87,54,23,17,17,21,0
32,105,84,54,23,17,20,22,0
35,94,80,53,21,17,21,22,0
35,99,81,48,23,18,20,19,0
35,76,77,48,21,19,21,20,0
36,105,80,50,21,19,21,24,0
33,115,96,67,23,21,17,23,0
31,127,96,73,23,21,19,25,0
30,123,103,69,24,21,20,24,0
30,124,103,69,24,20,20,28,0
30,121,105,72,25,20,23,27,0
30,114,93,61,24,19,24,28,0
28,113,99,73,25,19,23,28,0
33,120,94,77,25,18,25,29,0
32,123,101,75,25,19,25,26,0
34,105,103,76,26,19,25,29,0
38,117,103,73,28,19,24,30,0
40,125,93,56,29,20,25,29,0
38,133,98,51,29,20,22,28,0
39,130,104,55,31,20,22,27,0
40,132,98,48,29,21,20,23,0
43,127,102,56,28,21,21,25,0
43,115,111,66,26,22,21,28,0
42,111,106,68,26,21,22,29,0
42,116,88,65,22,21,21,31,0
38,115,100,67,22,20,22,31,0
30,111,98,63,22,19,21,29,0
30,106,90,50,21,18,20,26,0
31,100,89,45,20,18,20,27,0
33,94,89,48,20,17,20,27,0
31,114,78,44,19,17,19,26,0
33,118,82,42,19,18,20,27,0
33,125,83,39,20,18,20,27,0
34,123,81,41,20,20,18,26,0
34,135,87,32,20,20,16,24,0
35,118,81,36,23,21,19,27,0
35,122,70,45,22,21,19,28,0
33,118,65,47,22,21,19,27,0
32,127,69,48,22,20,21,27,0
33,120,61,56,26,20,22,30,0
32,127,66,53,24,19,20,28,0
30,114,67,46,25,19,19,26,0
30,122,86,56,25,18,19,24,0
30,122,85,56,25,19,18,24,0
29,115,97,48,21,19,19,21,0
30,105,98,48,22,19,19,22,0
31,110,97,50,22,19,20,24,0
32,95,81,48,25,20,20,26,0
33,108,82,51,24,17,20,26,0
31,104,69,52,25,19,19,28,0
35,116,73,55,25,18,20,29,0
36,112,72,55,26,17,20,26,0
37,116,69,43,23,17,20,25,0
40,105,73,45,24,19,22,27,0
40,107,94,47,23,17,21,24,0
37,94,99,44,23,19,20,21,0
34,95,111,48,20,18,20,21,0
35,88,114,49,20,18,18,26,0
29,70,109,46,21,17,17,24,0
27,68,97,49,20,17,16,27,0
28,77,91,49,21,18,16,26,0
32,91,75,41,22,19,16,26,0
30,94,75,42,23,20,19,24,0
31,99,76,43,21,21,20,25,0
33,112,68,43,25,21,20,25,0
32,107,65,47,26,20,23,26,0
29,93,64,47,27,20,24,26,0
32,112,73,49,26,20,23,25,0
31,111,84,44,27,18,21,23,0
36,106,85,36,25,19,23,21,0
42,115,86,37,25,20,20,22,0
42,117,88,52,24,19,18,22,0
41,119,92,54,24,18,18,22,0
43,130,81,54,23,19,21,23,0
39,134,83,56,22,19,19,22,0
31,132,81,52,21,18,19,22,0
31,143,81,39,24,17,21,24,0
29,127,64,33,23,18,21,26,0
24,118,70,32,25,18,18,25,0
29,116,72,31,26,18,20,26,0
31,117,85,32,26,17,19,26,0
33,118,85,32,28,19,19,28,0
33,119,90,34,27,18,17,26,0
38,139,88,57,28,19,19,27,0
36,133,81,57,28,20,19,27,0
35,129,72,58,27,20,19,27,0
34,119,69,58,22,20,16,20,0
35,116,65,57,23,21,17,23,0
33,88,63,37,20,22,19,24,0
31,105,72,43,20,22,18,26,0
33,136,68,44,21,25,20,29,0
33,136,71,41,23,23,21,29,0
34,137,74,43,22,24,22,29,0
29,141,76,40,22,23,20,28,0
34,136,69,42,23,23,21,27,0
31,104,65,38,23,20,19,23,0
34,104,64,44,22,20,20,25,0
33,102,55,43,22,17,20,21,0
36,117,54,47,23,16,20,25,0
34,120,69,42,24,16,20,24,0
34,125,74,41,24,18,20,23,0
36,123,74,34,24,18,20,23,0
39,138,80,35,22,20,19,26,0
37,117,78,28,24,19,19,23,0
36,110,66,25,21,19,19,25,0
40,107,82,29,22,19,21,29,0
35,106,91,41,22,19,20,30,0
34,97,88,43,25,20,21,28,0
35,102,86,43,22,21,21,26,0
33,111,86,45,22,20,20,26,0
29,106,64,42,20,18,19,23,0
32,133,48,44,23,21,20,25,0
29,137,49,42,22,19,18,26,0
28,138,57,42,23,19,18,25,0
29,129,61,43,24,19,19,25,0
28,137,64,43,25,20,20,26,0
24,117,64,35,26,18,21,21,0
34,112,64,34,24,17,21,24,0
38,110,61,39,25,17,22,25,0
37,110,52,40,26,17,22,25,0
36,96,50,47,26,17,20,23,0
38,83,57,43,22,17,20,25,0
34,81,58,46,23,18,20,23,0
32,96,59,42,24,17,19,22,0
32,94,64,40,22,19,18,22,0
34,97,62,34,23,20,18,22,0
35,97,65,33,24,18,20,21,0
32,94,65,30,23,19,21,21,0
36,108,62,32,24,19,22,25,0
36,112,57,32,25,19,23,25,0
36,118,68,29,23,19,22,25,0
40,143,66,33,23,21,20,27,0
41,151,73,31,22,20,19,26,0
35,131,73,29,19,21,17,25,0
37,141,74,31,20,20,17,24,0
41,139,71,34,21,20,16,27,0
39,114,64,30,22,18,16,24,0
40,119,71,35,22,19,18,26,0
45,120,70,35,23,18,17,25,0
44,124,74,31,22,18,17,28,0
44,125,68,34,22,17,20,27,0
43,124,68,37,22,18,21,28,0
44,105,49,33,22,20,19,27,0
40,108,71,33,22,20,22,28,0
39,99,72,34,22,20,22,25,0
39,121,75,27,21,21,22,26,0
39,120,77,18,20,20,21,25,0
35,148,85,24,20,17,22,28,0
35,149,78,31,21,18,20,26,0
37,152,84,35,20,17,21,27,0
33,134,86,36,20,18,18,25,0
30,158,90,36,20,18,18,26,0
32,154,86,37,20,19,18,24,0
34,162,83,37,25,20,19,22,0
31,157,75,35,25,20,18,21,0
32,159,72,36,25,19,20,22,0
31,136,62,37,24,21,20,21,0
29,138,63,42,31,19,18,21,0
29,126,56,38,26,18,19,22,0
29,122,54,38,26,18,21,25,0
30,119,52,37,26,18,21,29,0
32,121,56,36,27,17,22,32,0
35,93,60,27,19,17,22,32,0
35,107,58,27,20,18,22,32,0
35,117,61,26,21,18,19,31,0
34,120,63,24,20,19,18,27,0
32,116,61,26,19,18,17,23,0
29,142,52,26,23,19,21,26,0
33,145,55,27,24,19,21,28,0
35,142,52,30,24,18,21,27,0
35,140,57,30,24,16,21,29,0
37,144,56,31,26,17,22,28,0
39,114,55,28,22,17,19,28,0
32,89,53,27,21,15,18,27,0
31,82,52,26,21,17,19,27,0
34,86,49,27,21,19,18,23,0
32,78,50,27,19,19,17,25,0
30,78,50,26,19,20,17,25,0
33,86,57,27,22,21,18,24,0
33,110,62,24,20,19,19,23,0
36,118,59,24,21,18,21,25,0
37,118,61,22,21,19,21,27,0
37,119,62,21,21,18,20,28,0
35,116,55,21,20,17,20,26,0
35,85,56,20,20,19,20,28,0
36,95,63,20,19,19,19,27,0
36,126,70,21,21,19,21,24,0
36,127,72,22,20,20,21,22,0
40,132,73,22,19,20,20,22,0
38,133,67,22,17,19,19,22,0
30,129,63,23,19,18,19,21,0
30,129,69,49,19,17,17,20,0
29,126,70,56,24,20,17,20,0
24,120,77,62,26,20,18,20,0
26,121,83,63,28,28,18,20,0
27,110,93,83,31,30,19,23,0
26,108,103,81,30,31,19,23,0
26,117,108,82,28,31,20,24,0
24,120,106,81,27,31,20,23,0
26,119,104,80,25,24,20,21,0
29,122,92,59,22,23,19,20,0
31,96,68,49,20,22,21,21,0
31,93,79,44,21,20,20,24,0
39,87,78,37,22,21,23,26,0
40,86,80,47,23,22,23,26,0
40,86,101,51,22,21,23,29,0
43,109,110,49,22,21,21,29,0
45,105,96,49,20,20,22,30,0
43,119,95,48,19,18,21,30,0
42,121,96,40,19,18,21,30,0
40,115,77,34,19,17,20,28,0
37,112,63,38,19,18,21,30,0
37,114,64,38,22,19,22,29,0
41,109,63,40,23,20,21,28,0
41,114,58,39,23,19,22,29,0
44,120,56,38,25,20,22,28,0
44,104,57,33,26,20,22,28,0
42,103,60,37,26,19,21,28,0
33,97,65,39,24,18,23,27,0
32,102,65,40,23,18,22,27,0
30,100,62,40,22,17,24,26,0
29,98,59,37,22,16,23,25,0
30,110,56,28,20,17,22,22,0
33,120,53,35,27,17,18,22,0
33,120,56,38,29,19,18,24,0
29,119,67,41,29,19,15,23,0
30,122,70,42,29,18,16,25,0
28,112,66,42,29,20,16,24,0
27,101,61,37,25,20,16,23,0
26,99,59,31,22,18,16,20,0
29,100,47,30,23,20,17,20,0
31,113,49,29,21,21,16,22,0
40,119,57,34,21,20,18,26,0
41,148,60,29,21,20,19,31,0
43,147,66,31,21,21,20,32,0
47,156,64,29,20,20,21,36,0
45,174,68,30,20,19,21,34,0
38,172,70,26,21,18,20,33,0
36,170,70,25,21,19,20,29,0
33,166,65,32,23,20,19,27,0
29,174,66,36,24,19,20,22,0
37,151,67,36,26,19,19,23,0
38,148,63,36,26,19,20,21,0
38,123,62,38,25,19,18,23,0
39,124,64,36,26,21,19,24,0
39,110,64,37,26,20,15,24,0
31,107,60,38,24,19,16,23,0
28,114,60,37,24,22,15,22,0
30,115,60,36,24,23,16,23,0
30,108,64,33,21,21,16,23,0
27,90,67,30,19,21,17,24,0
29,113,66,28,18,22,20,25,0
29,104,63,27,19,22,20,26,0
27,119,79,26,19,18,21,24,0
27,125,80,23,21,18,22,28,0
27,123,77,21,23,18,21,26,0
25,94,77,21,23,17,20,24,0
26,101,79,33,26,17,20,25,0
26,74,59,35,28,17,20,25,0
27,71,46,36,27,18,18,21,0
28,77,51,37,26,19,18,22,0
32,113,53,37,28,20,19,22,0
35,119,54,29,25,19,18,23,0
39,125,73,30,23,20,17,24,0
45,141,74,28,21,20,17,24,0
47,141,72,27,20,19,17,26,0
47,133,72,27,19,20,19,29,0
46,176,75,26,17,20,19,32,0
44,185,62,23,17,20,20,29,0
35,174,67,25,19,20,19,28,0
31,173,67,25,19,20,19,30,0
26,163,71,30,20,20,18,27,0
27,120,66,32,22,18,19,23,0
27,104,61,31,21,18,18,25,0
30,102,59,32,20,19,19,25,0
35,129,66,31,21,19,20,20,0
36,141,69,26,21,20,18,23,0
37,133,71,24,19,22,19,24,0
38,133,75,25,20,21,19,24,0
35,144,93,21,20,20,20,24,0
34,132,88,24,20,20,22,26,0
33,132,84,22,19,18,23,22,0
36,134,83,21,21,17,22,23,0
34,135,81,21,22,19,22,22,0
36,124,57,22,22,19,22,23,0
38,139,59,23,22,18,20,23,0
38,138,53,23,22,17,19,23,0
37,135,59,23,20,17,18,27,0
35,131,56,23,18,18,18,28,0
35,143,62,26,19,19,20,31,0
30,118,62,31,22,20,17,30,0
31,100,65,36,22,21,18,32,0
32,113,64,37,23,20,20,29,0
35,115,64,38,23,20,21,28,0
37,104,69,36,23,19,20,26,0
40,113,74,32,21,18,20,28,0
39,115,76,27,20,17,22,28,0
35,98,73,26,21,17,20,27,0
37,100,74,24,21,15,19,26,0
34,95,63,23,21,19,19,23,0
35,90,60,30,21,20,20,22,0
37,104,59,30,22,21,20,23,0
38,109,57,30,22,22,20,23,0
42,130,60,35,23,22,21,28,0
41,130,61,39,25,21,21,29,0
40,140,52,34,24,18,20,27,0
39,131,45,34,24,18,18,26,0
39,131,58,36,24,18,19,27,0
33,116,61,32,23,19,20,23,0
39,152,65,26,21,20,19,23,0
40,141,66,27,20,21,19,25,0
40,145,65,31,19,22,19,24,0
37,147,57,28,18,22,19,22,0
37,140,51,29,18,22,17,25,0
38,109,52,29,17,22,16,26,0
38,109,52,26,17,21,16,25,0
40,129,60,22,18,20,18,25,0
42,122,60,21,19,20,18,27,0
42,132,68,20,19,19,17,23,0
37,119,60,20,20,17,19,22,0
34,128,73,21,20,18,19,23,0
32,119,72,19,19,19,19,25,0
31,126,73,21,17,18,18,23,0
30,124,68,21,18,18,18,25,0
30,125,69,19,17,20,18,24,0
31,131,57,18,16,20,18,23,0
31,141,59,19,17,20,18,23,0
29,162,55,19,18,20,20,24,0
28,157,53,20,18,19,19,22,0
28,163,60,21,19,18,18,22,0
26,156,59,21,20,19,18,21,0
28,145,53,28,21,18,17,23,0
29,113,51,29,21,18,16,23,0
35,124,62,29,20,17,17,24,0
36,119,53,28,22,18,16,25,0
34,112,53,30,21,18,18,26,0
34,127,52,23,22,19,18,25,0
33,123,53,23,22,20,18,23,0
31,110,41,26,22,21,18,26,0
32,132,45,28,22,20,18,26,0
33,130,44,27,23,19,17,24,0
31,120,56,27,21,20,17,22,0
36,124,56,28,21,20,17,27,0
36,132,76,26,20,20,19,22,0
35,108,77,26,19,21,20,23,0
36,119,82,26,19,22,19,24,0
38,100,76,26,18,23,20,25,0
38,96,78,25,19,22,20,22,0
41,123,66,32,20,21,19,25,0
39,132,70,29,21,20,18,25,0
41,127,68,30,23,19,19,27,0
40,125,72,29,24,17,19,26,0
36,134,73,29,24,16,19,25,0
37,100,67,21,25,18,19,30,0
38,85,62,21,23,19,19,29,0
42,96,58,22,22,19,18,29,0
42,107,53,23,21,19,17,29,0
42,108,54,21,19,19,18,28,0
41,113,54,22,16,18,19,26,0
43,117,61,24,14,17,20,26,0
36,110,58,25,15,17,21,26,0
37,98,57,24,16,19,22,28,0
39,119,56,23,17,19,23,28,0
33,117,60,24,19,19,21,25,0
30,115,55,22,20,21,20,23,0
30,106,60,20,22,20,19,23,0
30,116,62,20,21,20,23,23,0
31,91,57,19,20,19,21,24,0
34,109,55,18,20,21,21,24,0
38,117,55,18,19,19,21,24,0
38,127,55,19,16,21,21,25,0
36,122,49,19,16,20,18,24,0
32,113,54,21,20,21,19,24,0
31,122,54,21,21,19,20,25,0
29,124,58,22,20,19,20,30,0
31,120,55,21,22,18,19,30,0
33,131,62,21,23,19,17,29,0
32,131,61,22,21,20,16,29,0
35,130,61,24,19,21,15,29,0
36,149,61,23,22,21,17,26,0
33,148,62,25,21,20,17,23,0
32,144,58,25,21,19,18,23,0
34,150,55,23,20,18,18,22,0
28,137,62,24,20,18,18,21,0
24,106,57,23,19,22,15,19,0
27,127,58,23,18,21,15,18,0
29,123,58,22,16,22,15,21,0
27,119,63,23,18,21,15,22,0
31,104,50,20,18,22,16,22,0
35,104,48,21,18,17,17,23,0
34,83,47,18,18,19,19,24,0
31,77,51,19,19,17,19,24,0
31,72,45,20,21,18,19,22,0
29,80,52,19,21,18,20,24,0
25,77,57,20,20,19,22,23,0
27,66,60,21,21,18,21,23,0
32,72,57,20,21,19,20,23,0
34,74,57,19,20,18,20,23,0
34,72,53,21,21,19,21,21,0
36,87,58,21,22,19,19,25,0
37,85,52,22,21,19,16,26,0
36,80,51,23,19,18,17,25,0
34,92,56,23,19,18,17,27,0
33,102,56,20,17,17,17,28,0
32,88,48,19,17,17,18,25,0
30,90,47,19,18,19,21,25,0
27,92,46,19,19,19,20,25,0
35,97,44,18,18,20,20,24,0
36,96,45,19,19,19,19,24,0
34,104,46,19,20,21,18,24,0
33,104,48,19,20,19,16,26,0
34,109,53,18,19,21,18,26,0
28,109,50,17,19,20,19,25,0
30,112,52,20,20,20,19,26,0
30,125,57,20,18,20,19,25,0
32,132,59,20,19,19,18,22,0
37,128,55,21,20,18,16,22,0
37,124,60,22,20,19,15,24,0
35,121,65,18,20,19,16,22,0
35,110,68,22,21,21,18,25,0
35,102,66,24,22,22,19,26,0
28,102,66,23,20,21,20,24,0
27,91,66,23,19,21,20,23,0
26,75,61,23,19,21,20,22,0
28,65,52,20,19,18,18,19,0
27,76,54,20,17,19,17,18,0
28,77,54,22,20,18,18,20,0
29,88,50,22,21,17,18,18,0
32,106,53,22,20,19,21,22,0
30,109,51,22,21,18,20,19,0
33,103,52,23,22,18,20,26,0
34,111,57,21,22,19,18,26,0
33,115,60,21,23,20,19,27,0
30,108,56,20,21,19,17,24,0
37,117,63,21,21,19,19,30,0
37,137,66,21,20,19,20,25,0
36,132,60,21,19,19,19,25,0
36,148,60,20,18,20,19,27,0
38,144,61,23,19,20,19,29,0
30,160,70,25,19,20,18,27,0
25,171,72,26,21,20,17,26,0
29,198,75,26,21,21,17,26,0
28,190,79,27,22,19,18,24,0
33,213,80,24,21,20,16,22,0
34,202,69,22,21,20,16,21,0
35,179,63,19,19,19,17,23,0
37,180,68,19,20,17,18,25,0
35,184,62,19,19,20,18,24,0
35,167,60,19,19,19,20,27,0
35,160,56,19,18,19,21,24,0
34,164,54,21,19,19,20,24,0
32,133,45,22,17,19,19,23,0
34,138,42,21,18,18,22,26,0
30,127,46,21,19,18,22,23,0
28,122,50,22,20,18,20,24,0
29,116,49,20,20,19,20,24,0
29,112,47,19,20,20,20,25,0
30,89,57,21,19,19,16,21,0
32,108,52,21,19,19,15,21,0
35,113,51,19,19,20,16,21,0
35,133,60,19,19,20,17,21,0
35,135,58,19,20,18,18,20,0
35,133,52,18,21,18,17,21,0
32,123,50,19,21,18,18,21,0
32,127,48,21,22,18,18,23,0
34,111,38,19,21,18,19,25,0
38,127,42,18,22,19,18,28,0
39,135,41,19,19,21,19,27,0
39,147,48,19,20,20,21,28,0
38,151,51,18,19,20,21,26,0
36,154,54,20,19,19,20,25,0
33,146,56,19,18,19,21,23,0
33,163,53,18,18,18,21,24,0
32,153,49,20,19,18,19,24,0
39,147,58,20,20,18,21,25,0
38,140,60,21,19,18,23,25,0
39,129,57,21,19,19,21,25,0
36,102,58,20,19,18,21,25,0
37,101,60,18,17,19,20,23,0
29,107,51,21,17,19,18,23,0
28,118,43,20,18,19,17,25,0
24,161,51,21,19,19,17,23,0
26,163,56,23,18,18,18,23,0
29,159,54,25,18,17,18,25,0
33,156,53,23,17,19,20,27,0
35,180,58,24,18,19,19,26,0
35,146,55,24,18,18,20,28,0
35,151,60,23,18,18,21,30,0
33,155,64,23,21,19,22,29,0
29,151,67,23,22,18,20,27,0
33,113,67,22,21,16,19,24,0
33,119,68,22,21,17,18,24,0
35,105,59,21,23,17,18,22,0
33,105,54,20,20,17,17,21,0
34,112,49,20,20,17,18,19,0
30,130,47,19,20,19,18,20,0
33,153,49,20,20,18,19,20,0
31,150,47,21,17,19,17,17,0
35,162,49,20,20,19,17,21,0
34,164,50,23,19,20,18,22,0
33,153,47,23,21,20,19,22,0
35,147,41,22,21,22,19,23,0
34,153,43,23,21,22,20,23,0
32,133,46,23,23,22,21,22,0
34,139,46,21,23,22,20,21,0
33,142,51,21,23,21,17,21,0
28,124,54,22,24,20,18,20,0
29,132,63,23,24,20,19,21,0
35,141,60,23,22,19,18,22,0
33,125,61,22,23,18,18,23,0
32,133,56,21,20,19,19,23,0
34,128,51,22,21,20,20,26,0
34,116,43,22,21,19,17,26,0
28,132,41,21,21,19,19,23,0
29,136,38,23,19,18,18,24,0
31,119,50,24,21,17,18,24,0
28,146,57,23,20,15,17,22,0
32,167,59,22,20,16,17,24,0
32,149,59,23,19,16,16,24,0
31,146,63,22,19,17,18,23,0
33,159,56,22,18,18,19,22,0
32,139,52,23,19,20,19,23,0
31,105,45,23,19,19,18,23,0
30,100,54,22,19,21,18,25,0
31,112,53,22,22,24,16,26,0
29,120,51,21,24,24,16,25,0
27,128,62,22,22,23,15,25,0
25,136,67,23,22,23,16,23,0
28,138,61,23,22,22,16,23,0
28,134,59,23,20,20,16,21,0
31,118,63,23,21,18,16,22,0
33,103,60,21,21,18,16,21,0
36,143,62,20,22,19,18,23,0
34,143,62,20,24,23,19,25,0
33,150,60,19,23,23,19,27,0
31,143,69,20,22,24,17,27,0
30,141,61,21,22,24,18,27,0
28,110,61,23,21,23,18,27,0
29,115,61,23,21,19,18,22,0
31,121,69,25,20,19,18,20,0
32,126,66,24,20,19,20,19,0
34,134,70,25,21,20,19,20,0
33,121,67,22,21,20,19,20,0
37,128,71,23,18,21,19,25,0
38,114,63,21,21,21,20,25,0
39,124,55,22,20,21,21,27,0
36,127,52,20,19,21,22,25,0
37,140,50,21,19,22,22,27,0
36,136,49,22,21,20,22,24,0
33,129,49,23,19,21,21,25,0
31,111,52,21,18,19,19,24,0
36,131,53,23,18,20,18,26,0
36,115,56,23,19,18,18,27,0
31,112,51,22,19,19,17,27,0
35,124,54,22,19,18,19,28,0
35,128,56,22,20,19,19,27,0
38,109,61,24,20,18,19,26,0
37,111,60,24,19,18,17,22,0
41,120,67,24,19,18,19,22,0
38,106,66,24,19,18,19,21,0
38,115,61,24,18,17,18,22,0
31,120,55,22,17,18,18,23,0
31,125,52,22,20,16,18,22,0
26,112,47,21,20,17,18,24,0
25,132,56,19,19,17,16,23,0
29,123,53,21,19,17,19,25,0
30,112,57,18,18,16,19,24,0
32,118,57,21,16,18,20,24,0
33,117,55,21,17,17,20,23,0
35,110,46,21,18,18,21,25,0
33,109,54,21,18,17,19,22,0
31,116,49,22,20,17,19,25,0
29,105,56,20,18,16,19,24,0
31,124,58,20,18,18,18,23,0
29,116,64,22,19,17,17,22,0
29,124,67,21,19,18,19,24,0
28,123,68,20,17,18,20,20,0
29,131,64,20,19,20,20,20,0
26,113,62,20,19,18,20,22,0
29,116,61,19,19,19,20,22,0
31,126,53,20,21,18,18,21,0
35,118,53,20,22,19,18,23,0
33,106,51,21,22,18,17,23,0
34,125,53,21,22,19,18,24,0
33,121,47,20,21,18,19,26,0
30,100,43,18,20,19,20,27,0
26,105,50,21,18,19,20,25,0
27,103,50,21,17,19,20,27,0
26,89,51,21,15,19,21,25,0
29,83,51,21,19,19,19,21,0
31,100,56,21,18,19,18,24,0
30,100,51,20,19,17,16,23,0
34,116,55,21,21,19,17,21,0
36,107,54,20,23,19,15,25,0
34,110,54,22,20,20,19,25,0
35,108,57,22,21,20,18,22,0
36,111,58,21,22,21,18,23,0
31,103,54,20,22,21,18,25,0
31,106,56,21,20,20,19,23,0
31,113,59,19,22,21,16,22,0
28,106,54,18,22,22,16,22,0
30,107,55,21,20,20,18,22,0
30,105,55,23,20,18,18,19,0
27,115,62,23,22,17,17,18,0
28,107,59,24,19,18,18,18,0
29,106,54,24,18,17,19,19,0
29,95,52,20,19,18,18,20,0
29,113,61,19,19,17,19,26,0
32,108,53,19,18,18,20,28,0
30,112,52,21,19,15,19,29,0
30,126,56,21,20,15,18,28,0
31,126,53,23,20,17,17,27,0
31,114,60,24,19,17,16,21,0
29,127,63,24,19,16,15,21,0
33,126,64,22,20,19,18,20,0
34,111,62,23,19,21,19,21,0
32,116,64,20,20,19,19,23,0
35,111,48,19,20,19,20,23,0
34,99,52,18,20,22,22,24,0
34,120,63,18,22,21,19,23,0
33,115,64,18,22,20,19,21,0
34,113,65,22,21,21,19,23,0
33,114,69,22,20,20,19,22,0
35,115,67,21,20,16,18,22,0
32,95,59,23,19,16,19,23,0
32,113,70,23,19,15,18,25,0
30,125,83,20,20,15,21,21,0
28,120,80,22,23,18,20,22,0
25,112,74,22,23,19,20,21,0
27,111,72,20,23,20,20,23,0
29,143,79,22,23,20,20,21,0
27,134,63,21,22,19,18,20,0
25,140,68,21,19,19,18,20,0
30,153,71,21,20,19,18,19,0
29,161,69,20,19,18,17,16,0
33,136,51,19,18,19,19,20,0
38,139,53,19,18,19,19,23,0
40,136,52,19,17,19,19,23,0
35,123,49,20,17,19,19,23,0
38,124,54,23,18,19,19,26,0
35,110,57,23,19,18,20,24,0
29,109,55,23,20,20,20,23,0
27,106,51,22,19,18,20,23,0
28,114,55,21,19,18,20,22,0
28,97,57,19,18,18,22,18,0
27,91,51,20,18,18,19,20,0
28,79,52,21,17,15,18,19,0
28,86,53,21,17,19,18,19,0
38,78,60,24,18,17,19,19,0
40,81,60,25,18,18,17,23,0
44,86,60,24,17,17,17,23,0
45,96,61,23,17,20,16,24,0
46,93,61,24,18,17,18,25,0
39,86,48,22,16,18,18,27,0
36,99,47,21,17,18,17,26,0
30,99,57,21,16,21,17,27,0
28,97,53,22,18,20,18,26,0
26,99,53,21,17,22,17,25,0
26,124,60,20,17,21,15,26,0
26,111,57,19,19,21,16,23,0
26,107,46,19,19,19,16,21,0
26,110,54,19,20,19,16,22,0
30,123,53,20,20,18,18,23,0
30,108,48,19,20,19,18,22,0
30,116,47,19,17,19,19,25,0
34,144,62,21,17,18,20,25,0
34,140,58,21,16,18,21,23,0
32,125,62,20,16,17,18,22,0
31,145,70,20,17,16,19,22,0
29,145,72,20,18,18,18,23,0
24,127,63,20,18,17,17,23,0
24,127,61,20,19,19,17,23,0
29,139,59,20,20,19,20,27,0
34,107,49,20,20,21,19,25,0
35,97,44,21,22,19,19,24,0
34,85,43,19,22,22,19,23,0
36,93,58,20,21,21,19,24,0
31,83,61,19,20,22,19,20,0
26,104,65,19,21,19,19,21,0
26,114,63,19,19,22,20,20,0
28,115,63,18,18,20,19,22,0
27,108,51,16,18,19,20,21,0
27,111,54,15,19,18,18,22,0
29,100,54,16,18,19,19,23,0
28,88,55,17,17,17,17,24,0
31,102,53,16,19,18,19,24,0
33,101,52,19,17,18,19,25,0
36,102,47,20,19,18,18,26,0
35,95,42,19,20,19,17,25,0
35,96,46,19,20,21,17,25,0
35,91,60,22,21,20,17,24,0
36,111,65,20,21,21,16,26,0
32,98,63,21,20,21,19,24,0
33,103,65,21,18,20,19,22,0
35,106,61,21,19,18,19,23,0
33,123,49,20,16,19,16,21,0
28,103,42,21,17,19,18,17,0
32,108,43,21,17,20,17,21,0
28,105,40,21,18,19,17,23,0
26,105,42,21,17,19,20,25,0
32,89,43,22,18,19,22,25,0
37,117,46,22,18,20,21,25,0
36,124,51,21,18,21,21,23,0
37,125,56,22,18,22,21,22,0
37,128,59,22,18,23,19,20,0
34,132,62,21,17,23,19,21,0
30,115,60,21,17,22,23,20,0
30,106,56,22,17,20,23,20,0
32,112,57,21,18,19,23,22,0
34,118,61,21,21,19,24,23,0
33,106,57,24,22,18,23,22,0
33,100,57,23,22,17,19,22,0
32,112,58,22,23,15,20,23,0
31,111,51,20,22,18,20,19,0
27,108,44,19,20,17,19,19,0
25,112,49,16,19,17,18,19,0
22,126,50,18,19,19,19,20,0
24,122,49,19,17,19,19,20,0
24,117,50,21,18,19,19,22,0
25,126,68,23,18,20,18,21,0
27,132,68,23,19,20,18,24,0
28,118,68,21,20,17,22,22,0
26,112,67,21,21,17,20,23,0
27,112,69,19,21,17,19,23,0
30,91,59,19,20,17,21,25,0
31,96,56,20,22,17,22,27,0
33,107,55,20,20,19,19,28,0
32,111,59,20,20,19,20,27,0
31,120,58,20,20,18,21,27,0
32,124,55,21,20,18,21,27,0
30,144,59,22,19,17,20,23,0
31,140,61,22,19,17,20,22,0
30,136,57,22,19,16,18,22,0
32,137,57,22,17,16,18,22,0
29,141,51,21,19,16,17,21,0
31,101,61,18,20,18,15,21,0
31,95,60,19,19,18,17,22,0
35,102,62,19,20,19,20,23,0
33,104,65,19,20,19,20,20,0
33,95,79,21,19,20,20,22,0
36,101,70,22,17,19,22,30,0
33,107,70,21,18,18,21,29,0
32,107,71,22,18,17,19,30,0
34,107,67,22,19,18,19,31,0
38,114,44,19,20,18,21,32,0
37,112,43,18,20,17,19,27,0
38,138,44,18,22,17,19,28,0
37,132,46,16,21,18,18,26,0
35,125,47,16,21,16,17,26,0
29,116,53,43,26,18,16,25,0
25,123,54,59,27,22,16,24,0
25,83,55,65,28,21,17,23,0
25,86,51,67,30,33,97,31,0
26,81,51,67,31,39,175,37,0
25,89,55,55,26,38,183,36,0
28,98,57,42,26,39,190,37,0
27,117,56,61,25,40,193,37,0
27,121,59,66,24,32,173,31,0
27,119,60,67,25,26,99,22,0
28,114,55,78,26,26,88,24,0
25,94,57,91,27,25,75,23,0
25,73,57,76,25,22,80,24,0
22,70,55,70,25,23,71,24,0
23,78,58,70,23,23,63,25,0
25,86,56,60,24,23,55,23,0
27,90,52,36,24,21,52,24,0
30,105,61,66,27,21,33,22,0
32,110,66,71,27,19,28,22,0
33,114,63,72,26,18,24,24,0
33,113,64,71,24,18,24,26,0
31,124,65,71,22,17,22,25,0
31,129,69,54,22,19,23,34,0
35,129,73,49,23,20,23,36,0
38,124,71,49,23,21,23,35,0
38,128,72,76,24,21,21,34,0
38,136,77,77,25,22,22,35,0
36,133,67,70,23,22,22,26,0
37,132,63,70,21,20,21,25,0
40,145,74,75,24,22,21,26,0
44,151,76,48,23,23,26,27,0
48,142,71,44,23,23,25,27,0
58,137,68,44,23,23,24,34,0
57,143,66,41,22,22,25,36,0
55,139,60,28,19,20,24,34,0
51,122,57,26,19,21,19,33,0
73,119,53,26,21,22,20,37,0
69,133,58,38,23,22,19,34,0
74,154,61,70,25,22,18,35,0
73,158,59,77,27,24,25,36,0
74,161,63,78,27,22,24,36,0
50,165,69,83,26,21,25,32,0
47,157,66,87,25,22,27,28,0
37,127,67,89,28,23,36,26,0
36,136,97,118,30,25,37,24,0
36,145,109,195,40,29,39,25,0
31,134,112,206,42,30,51,26,0
31,129,117,255,48,36,49,26,0
31,124,119,254,50,55,48,24,0
29,95,97,243,67,103,48,24,0
29,78,81,205,63,107,48,23,0
28,78,76,194,66,109,43,22,0
27,62,67,116,63,109,44,23,0
24,66,56,103,61,101,48,28,0
31,74,58,100,41,58,46,29,0
29,88,55,83,39,107,47,30,0
33,96,51,80,37,109,65,33,0
39,101,55,81,35,111,67,36,0
51,107,56,81,34,113,64,37,0
53,120,51,77,34,112,68,38,0
54,114,58,44,34,60,71,40,0
52,108,57,42,31,69,55,40,0
60,105,52,39,31,89,53,40,0
55,111,52,64,32,91,49,38,0
52,122,53,63,28,91,43,37,0
52,136,54,67,28,91,33,35,0
57,135,53,71,29,79,26,33,0
52,137,53,72,26,50,25,41,0
49,131,53,51,25,43,24,40,0
55,111,58,50,27,35,26,43,0
59,103,54,53,27,33,25,41,0
58,165,56,45,24,31,26,41,0
52,173,63,72,26,25,22,28,0
50,171,61,74,31,23,23,29,0
41,165,56,78,31,21,21,25,0
31,157,56,90,32,20,23,24,0
31,87,61,94,32,20,22,26,0
33,73,74,112,37,21,24,29,0
35,68,86,263,43,25,32,28,0
35,65,88,286,96,36,69,32,0
36,57,93,292,155,182,122,53,0
31,55,88,297,175,196,154,74,0
28,40,74,287,180,206,186,80,0
26,37,62,171,190,212,203,85,0
24,39,57,129,173,213,200,85,0
23,37,42,105,127,120,176,76,0
29,37,41,105,102,95,153,57,0
33,42,53,106,91,73,113,49,0
39,81,78,90,66,52,78,41,0
48,181,113,101,53,39,61,42,0
53,194,130,101,44,30,49,39,0
50,201,134,117,37,30,40,35,0
49,207,146,228,40,31,36,37,0
45,203,138,239,44,28,34,35,0
38,132,115,253,51,28,36,31,0
34,119,98,258,56,29,76,35,0
33,108,94,245,56,30,84,36,0
30,95,66,149,53,27,95,33,0
31,73,54,129,49,27,98,37,0
34,56,45,87,39,28,98,43,0
37,60,42,70,31,24,72,44,0
47,83,76,85,30,24,62,48,0
55,118,91,102,30,23,42,48,0
59,157,139,106,29,23,34,46,0
57,194,161,117,32,22,30,40,0
54,222,173,192,31,23,26,36,0
48,226,164,200,31,24,27,31,0
40,215,156,189,29,25,24,28,0
31,193,119,191,62,25,67,30,0
30,154,91,188,65,26,101,31,0
29,103,63,114,66,26,108,28,0
28,74,51,84,67,25,109,28,0
26,58,49,79,68,24,110,28,0
34,46,41,68,40,22,91,26,0
58,92,34,58,34,19,49,31,0
70,154,104,44,30,21,31,37,0
73,168,131,65,30,20,24,37,0
75,264,141,76,33,24,24,39,0
74,311,152,97,33,25,23,39,0
59,313,176,185,37,28,26,37,0
44,297,148,202,38,26,26,32,0
39,290,126,209,36,27,26,31,0
32,210,116,205,68,28,27,27,0
29,131,103,197,73,29,27,27,0
22,98,53,121,74,25,25,28,0
22,59,45,90,74,27,25,29,0
25,56,43,52,75,25,25,32,0
36,60,38,45,46,23,23,37,0
41,66,37,38,40,23,23,37,0
51,144,79,32,35,24,22,33,0
52,221,93,30,32,25,21,32,0
67,238,116,29,31,27,23,31,0
72,367,180,94,34,26,23,30,0
71,449,200,121,35,27,23,31,0
74,540,219,177,37,28,24,40,0
75,528,224,247,40,27,27,41,0
64,535,217,254,39,24,36,39,0
54,468,192,243,37,27,53,37,0
54,415,194,279,51,29,62,38,0
42,269,163,255,51,28,68,33,0
44,259,166,270,56,29,68,33,0
46,231,172,298,62,31,64,36,0
48,211,157,309,63,28,53,39,0
48,162,131,275,52,24,45,37,0
51,151,130,282,53,23,35,36,0
50,146,118,245,50,24,34,36,0
47,164,140,216,42,23,34,35,0
53,167,140,203,40,24,30,36,0
63,234,148,201,38,24,26,40,0
72,253,147,202,35,26,30,42,0
74,250,143,157,31,24,31,43,0
74,242,111,154,30,22,28,41,0
71,260,105,153,34,24,29,42,0
60,205,98,160,35,23,29,38,0
45,178,107,199,37,22,28,32,0
36,164,107,213,37,23,33,31,0
34,153,109,235,39,25,49,32,0
26,117,102,257,38,23,75,27,0
27,110,96,263,39,25,79,25,0
27,106,81,235,35,24,80,26,0
30,96,85,262,37,23,81,25,0
28,96,84,236,37,22,72,23,0
29,124,95,213,37,22,45,24,0
29,143,115,216,36,21,42,24,0
29,146,115,206,38,21,39,24,0
27,165,123,202,41,25,34,26,0
32,178,121,204,38,26,38,30,0
48,163,109,203,36,26,37,34,0
53,155,85,184,35,26,34,39,0
55,159,99,195,35,30,38,42,0
57,150,97,143,29,26,39,43,0
59,179,96,134,29,25,34,41,0
51,180,98,125,30,25,34,42,0
50,180,106,172,33,25,32,39,0
50,182,91,149,30,19,30,35,0
48,179,80,169,29,20,31,31,0
46,160,82,171,30,20,33,36,0
45,153,86,170,27,20,31,35,0
42,146,83,110,23,18,31,34,0
45,155,90,113,25,20,29,34,0
54,171,83,74,23,21,25,37,0
51,151,83,64,22,22,22,34,0
53,143,82,60,22,23,23,30,0
63,181,86,53,23,23,24,30,0
61,184,80,37,21,22,22,30,0
58,180,86,99,27,22,22,27,0
64,181,84,111,26,21,22,26,0
62,201,79,125,30,20,21,24,0
54,164,104,182,33,21,20,27,0
52,162,111,188,35,20,22,25,0
48,189,113,175,34,19,26,26,0
40,200,124,215,37,19,31,25,0
34,182,133,211,37,20,35,26,0
38,225,142,193,36,23,46,37,0
39,216,143,257,42,25,61,42,0
40,203,147,265,45,29,65,43,0
39,206,158,329,61,40,76,45,0
39,221,161,343,63,41,82,45,0
36,218,147,333,64,41,79,36,0
37,225,150,301,63,41,72,31,0
36,223,149,293,60,39,71,30,0
37,214,127,187,42,29,70,30,0
38,210,115,157,37,27,67,33,0
37,196,98,152,36,26,64,33,0
48,211,86,111,29,27,62,39,0
61,200,79,96,27,27,63,38,0
63,206,78,81,29,26,48,37,0
71,269,93,125,32,26,41,37,0
72,252,92,121,31,24,43,40,0
68,233,85,122,30,21,38,34,0
56,234,93,124,30,22,33,35,0
60,229,92,132,29,23,32,35,0
53,147,82,98,28,22,39,32,0
63,152,89,110,29,24,50,29,0
62,172,97,132,29,26,54,30,0
69,170,87,131,28,26,56,42,0
73,207,108,113,27,27,57,44,0
81,223,106,106,26,29,56,49,0
77,244,101,96,27,28,48,50,0
77,250,110,87,29,27,46,54,0
72,254,111,115,35,28,46,43,0
61,228,103,154,37,27,49,40,0
48,206,117,300,55,28,50,35,0
39,179,116,319,55,28,54,32,0
32,142,106,324,60,27,55,24,0
33,126,103,329,59,29,57,27,0
34,125,95,325,59,30,58,27,0
34,116,94,297,49,29,59,27,0
47,130,93,283,53,37,56,33,0
46,140,114,278,49,40,53,33,0
45,143,132,323,55,42,53,35,0
44,155,135,318,54,41,47,35,0
48,164,127,233,49,40,53,37,0
38,161,141,241,46,34,54,35,0
43,155,129,236,45,31,55,37,0
44,170,114,208,37,28,52,36,0
47,158,112,205,37,28,53,35,0
46,171,136,215,39,27,47,32,0
47,203,125,202,37,25,42,29,0
44,211,117,197,36,24,39,28,0
44,199,114,124,31,21,38,25,0
40,209,117,133,32,22,39,25,0
42,207,89,108,25,22,30,29,0
44,176,90,97,25,22,37,28,0
41,180,130,101,25,24,38,28,0
40,179,136,98,27,24,37,33,0
48,175,155,72,22,22,38,35,0
60,213,175,69,22,22,41,40,0
59,240,180,94,24,23,49,45,0
67,236,160,107,27,22,53,52,0
69,236,164,113,28,26,60,51,0
66,231,150,118,29,26,59,53,0
54,179,125,119,32,27,70,49,0
57,144,127,145,33,29,77,46,0
50,146,131,187,35,30,77,35,0
49,146,132,215,39,31,75,34,0
45,154,127,238,38,31,82,29,0
41,169,127,261,40,30,80,28,0
35,144,121,324,54,29,76,28,0
32,148,109,309,52,28,75,27,0
31,144,104,309,59,31,81,27,0
30,126,99,342,63,31,78,28,0
28,123,116,338,62,32,76,26,0
26,126,124,288,53,32,81,27,0
32,105,146,322,57,39,82,29,0
31,110,147,331,49,38,79,29,0
31,124,158,288,46,38,76,28,0
33,105,153,281,49,39,75,31,0
40,124,142,252,44,38,58,29,0
37,126,144,187,37,29,54,27,0
42,130,148,154,35,24,48,29,0
46,177,158,261,49,26,46,34,0
50,180,165,260,45,24,39,39,0
51,187,174,265,46,23,44,39,0
52,197,154,274,49,26,48,42,0
55,201,151,319,52,33,46,42,0
55,160,152,242,43,32,45,40,0
61,177,148,240,43,32,46,37,0
58,182,156,236,41,33,45,37,0
61,188,174,225,43,31,47,38,0
66,181,179,134,36,24,46,40,0
68,175,171,119,31,25,46,41,0
66,165,173,122,31,24,43,39,0
64,159,163,124,32,23,45,39,0
60,172,157,172,27,24,41,36,0
53,187,150,178,28,23,40,31,0
49,185,140,183,29,23,45,27,0
40,183,126,182,29,29,49,25,0
39,164,113,179,29,29,56,27,0
37,135,99,158,29,30,55,25,0
31,134,82,160,28,32,57,26,0
28,136,68,149,25,30,62,27,0
28,127,68,141,24,25,61,27,0
27,151,72,157,25,25,55,23,0
27,148,80,144,29,32,56,23,0
24,140,87,181,35,32,56,23,0
24,138,92,185,39,33,44,24,0
26,159,98,200,43,33,44,25,0
31,137,98,235,46,34,36,25,0
30,139,85,233,43,27,35,25,0
32,135,84,211,39,30,34,24,0
42,135,89,207,36,30,38,25,0
44,105,85,191,30,29,36,24,0
46,132,81,143,24,28,34,26,0
51,128,91,138,25,27,30,26,0
53,119,84,114,26,21,29,30,0
45,120,84,177,30,21,24,28,0
49,202,127,178,30,21,23,36,0
47,199,137,167,31,21,23,36,0
48,214,136,166,31,23,24,39,0
47,219,144,165,29,22,22,35,0
52,232,148,92,25,21,25,39,0
56,182,112,87,26,20,27,32,0
65,173,107,71,25,21,30,38,0
64,190,115,61,22,19,32,37,0
70,185,123,67,25,23,36,43,0
67,178,112,57,24,23,38,40,0
60,174,109,70,24,24,45,43,0
50,190,113,94,29,22,46,38,0
47,160,101,121,32,23,52,36,0
35,169,95,198,36,22,52,33,0
34,156,102,260,43,22,55,32,0
33,146,108,327,48,22,51,29,0
30,115,97,329,48,24,51,26,0
30,115,96,323,48,25,50,25,0
31,118,82,295,45,25,51,23,0
31,115,85,264,42,27,49,25,0
28,126,80,188,35,27,52,23,0
30,128,78,190,35,25,57,27,0
31,141,75,188,33,23,55,28,0
31,131,87,181,35,22,54,28,0
29,146,85,158,31,21,52,27,0
30,144,83,157,31,21,47,28,0
38,159,97,202,29,24,40,29,0
44,147,102,205,29,24,38,31,0
43,156,110,196,26,23,40,33,0
46,174,104,187,25,22,40,37,0
54,170,110,170,25,20,43,39,0
53,166,101,87,25,20,43,39,0
47,162,95,70,26,20,42,36,0
50,166,81,94,24,20,37,34,0
51,136,85,92,24,22,47,30,0
57,190,93,103,27,23,48,39,0
74,201,129,111,23,23,49,43,0
77,200,131,112,22,25,49,47,0
80,192,127,98,31,25,57,50,0
83,207,142,147,35,23,48,50,0
77,163,139,204,41,25,45,45,0
61,137,112,219,43,23,43,39,0
59,149,114,232,46,23,46,35,0
53,152,112,245,42,23,36,30,0
44,134,95,273,40,23,34,29,0
39,134,85,230,32,19,32,25,0
34,131,84,225,33,20,36,22,0
32,125,92,231,31,20,39,23,0
32,112,96,267,35,22,42,22,0
33,107,94,224,36,23,50,25,0
32,94,105,239,39,25,51,25,0
28,103,107,293,42,25,51,25,0
28,87,94,285,42,24,51,24,0
27,99,90,241,38,21,48,24,0
27,111,84,232,37,21,42,22,0
30,115,64,216,33,20,40,22,0
28,102,50,128,25,20,38,21,0
32,111,56,124,23,22,28,22,0
35,103,96,177,28,25,34,23,0
36,104,109,191,28,28,30,24,0
35,124,128,202,29,26,30,22,0
40,128,132,205,33,27,30,24,0
38,147,145,237,38,27,29,22,0
36,155,134,206,34,24,19,21,0
38,147,132,205,37,21,21,21,0
49,164,117,210,37,22,21,29,0
49,166,114,202,34,20,20,30,0
57,151,98,203,32,20,21,30,0
59,158,81,195,32,19,22,31,0
60,164,85,182,26,20,21,32,0
50,166,82,164,26,21,24,27,0
52,171,81,158,25,23,28,27,0
46,201,82,87,22,22,26,28,0
50,203,94,81,22,24,27,34,0
57,228,91,75,22,22,27,33,0
60,240,118,70,22,20,26,34,0
61,241,122,66,23,20,24,35,0
62,218,126,63,22,23,25,40,0
57,209,118,44,21,21,24,34,0
53,241,112,60,20,22,30,36,0
49,211,102,67,22,24,35,36,0
42,207,100,146,27,23,35,35,0
39,211,108,230,40,24,48,30,0
38,214,119,271,50,24,53,30,0
28,138,115,284,55,25,50,27,0
28,142,104,296,55,26,62,26,0
30,153,121,309,57,38,89,30,0
28,167,117,273,54,42,93,30,0
28,168,111,241,47,44,95,30,0
26,169,116,262,46,44,96,31,0
26,163,114,281,49,43,88,30,0
27,167,97,257,47,35,73,25,0
27,146,84,243,45,29,66,22,0
26,156,86,263,44,28,61,24,0
25,154,85,230,42,28,60,22,0
32,151,87,217,42,27,60,25,0
30,139,87,192,40,23,44,25,0
47,177,107,203,36,23,38,31,0
49,203,126,180,36,21,35,31,0
52,205,140,184,36,22,39,35,0
49,207,141,198,31,24,38,37,0
50,210,156,200,30,23,37,39,0
40,194,175,189,31,24,33,39,0
40,177,177,177,30,24,31,38,0
41,194,171,167,29,22,26,40,0
50,204,172,109,26,20,26,37,0
50,196,159,165,33,22,24,36,0
50,194,130,166,34,20,24,36,0
49,176,100,170,33,18,25,36,0
64,154,91,169,34,19,24,41,0
62,169,86,162,35,19,23,41,0
63,173,94,135,31,17,25,41,0
60,179,97,122,30,18,27,37,0
61,175,108,187,38,22,55,39,0
58,218,114,216,39,23,55,32,0
52,193,122,270,42,26,56,30,0
50,187,129,296,57,28,58,29,0
49,163,126,307,60,28,58,29,0
48,165,120,298,59,32,42,28,0
27,97,112,291,63,35,41,24,0
26,122,100,258,62,34,39,24,0
28,125,97,284,59,35,38,25,0
33,142,100,282,55,35,38,25,0
38,152,114,264,53,30,29,28,0
44,202,141,308,54,28,29,32,0
48,205,162,305,54,27,27,33,0
50,218,156,238,42,25,26,32,0
55,214,151,229,42,26,32,36,0
58,218,143,216,38,27,32,39,0
59,196,124,120,26,25,37,42,0
63,199,99,92,24,24,47,44,0
62,200,96,83,24,24,48,45,0
57,209,119,101,26,22,43,42,0
55,230,143,118,34,22,52,39,0
54,225,143,207,44,24,60,34,0
53,209,141,212,45,25,54,31,0
52,193,143,220,47,27,56,30,0
50,188,131,228,46,26,56,29,0
46,167,98,232,49,27,68,28,0
40,158,109,245,47,26,67,27,0
32,157,115,271,50,31,69,28,0
34,161,128,299,57,30,71,29,0
32,151,123,292,59,32,89,29,0
28,119,129,281,53,30,76,25,0
28,111,124,272,52,31,69,25,0
31,120,134,249,49,25,77,24,0
31,157,127,213,48,24,76,26,0
39,241,139,219,48,23,55,25,0
56,256,163,224,47,25,55,38,0
62,262,172,144,43,26,54,50,0
70,266,175,135,42,26,46,57,0
70,269,184,128,32,27,43,59,0
67,229,187,92,27,29,47,62,0
103,224,191,90,29,28,46,59,0
126,234,199,98,28,26,48,53,0
123,237,187,88,27,26,42,47,0
128,217,180,82,24,26,45,61,0
138,188,179,84,24,22,46,70,0
110,192,161,69,21,23,44,68,0
86,181,137,51,20,24,44,70,0
99,162,136,50,22,25,53,71,0
93,154,122,66,22,23,60,57,0
77,143,102,83,23,24,56,42,0
72,132,119,174,27,27,58,42,0
64,113,122,205,34,27,59,34,0
38,116,131,232,46,35,54,27,0
32,117,139,241,47,36,50,27,0
31,120,145,241,53,38,59,27,0
31,101,124,231,56,42,60,24,0
29,112,120,235,57,42,59,22,0
25,111,118,233,51,35,59,24,0
26,106,113,229,52,36,55,24,0
29,106,149,269,50,34,45,25,0
30,115,164,238,45,25,43,26,0
37,148,191,216,43,36,39,26,0
42,189,212,198,41,34,34,28,0
43,203,217,195,39,35,31,27,0
50,227,206,154,39,35,31,33,0
59,227,271,148,37,37,29,38,0
60,240,368,200,38,27,28,41,0
66,242,359,203,37,27,27,41,0
74,242,366,199,38,27,29,49,0
75,233,386,179,34,25,29,44,0
73,253,346,180,37,24,32,43,0
72,252,238,115,31,24,35,41,0
65,236,237,95,30,24,40,41,0
67,237,224,104,29,26,44,40,0
65,228,185,177,38,30,61,44,0
58,207,176,214,51,32,78,42,0
57,214,142,222,61,32,77,43,0
56,199,133,237,67,34,82,41,0
41,190,132,240,69,37,89,36,0
34,191,122,250,69,37,84,31,0
32,203,102,241,80,36,67,29,0
31,148,102,244,83,37,74,27,0
33,146,122,284,84,36,72,29,0
32,132,116,285,87,31,77,27,0
33,139,118,248,87,35,79,26,0
39,119,118,238,70,35,91,32,0
42,125,125,229,60,34,103,34,0
47,145,119,187,58,33,99,40,0
53,160,141,225,57,35,90,44,0
66,157,140,221,53,33,84,47,0
69,172,153,208,48,30,71,48,0
69,201,160,204,46,30,44,47,0
75,198,161,185,41,33,46,58,0
74,204,197,117,33,31,40,56,0
79,227,253,95,28,26,37,60,0
77,244,254,88,32,28,35,57,0
78,223,260,84,32,27,35,58,0
70,259,262,94,30,24,31,46,0
69,264,254,99,32,24,29,47,0
55,270,215,101,34,24,27,40,0
52,260,203,99,28,22,27,42,0
52,263,197,97,28,24,27,42,0
52,223,188,71,29,29,25,40,0
58,217,181,77,36,30,24,35,0
55,200,167,77,38,33,35,39,0
54,197,177,131,44,34,35,38,0
53,196,171,139,43,34,36,35,0
49,191,171,153,49,36,39,31,0
41,181,132,160,61,34,44,31,0
38,155,128,213,61,34,48,29,0
39,124,115,212,60,39,55,29,0
32,123,117,216,64,39,58,31,0
31,125,112,227,73,35,58,32,0
29,118,124,269,71,44,65,36,0
32,119,117,241,73,48,64,35,0
40,146,197,221,72,44,60,36,0
40,181,209,226,69,45,57,34,0
43,225,238,217,61,46,55,35,0
49,242,255,150,49,42,45,34,0
55,273,274,134,45,37,35,32,0
57,263,260,145,47,37,32,33,0
62,259,274,180,53,38,34,35,0
67,236,263,175,47,37,36,41,0
72,257,296,183,45,33,35,51,0
68,229,308,189,45,33,41,53,0
70,230,283,179,41,34,48,56,0
68,227,262,124,35,39,47,55,0
64,240,270,111,38,38,48,53,0
63,202,222,93,37,40,49,44,0
68,204,175,70,35,40,46,48,0
58,203,171,63,35,38,53,45,0
56,189,162,102,32,29,54,45,0
61,165,139,157,33,33,79,46,0
54,174,129,202,39,31,84,45,0
45,165,145,227,44,31,89,37,0
45,168,141,246,47,32,85,35,0
47,150,142,268,48,34,87,38,0
39,141,125,275,46,28,65,33,0
35,116,123,297,47,27,64,29,0
35,128,120,299,59,35,67,31,0
33,121,135,333,76,45,82,30,0
30,117,134,312,80,47,85,28,0
28,105,143,293,84,47,94,28,0
27,119,136,266,84,50,92,28,0
27,116,130,249,76,50,89,28,0
31,143,168,197,58,42,73,29,0
36,156,171,185,50,39,69,28,0
45,172,204,172,39,40,58,32,0
55,179,208,129,34,36,57,34,0
76,184,230,122,31,27,49,33,0
76,179,208,101,30,24,47,39,0
79,207,250,106,31,34,44,44,0
78,225,319,188,42,33,40,44,0
93,249,356,195,42,33,37,50,0
78,249,349,198,42,33,35,49,0
79,240,343,198,41,32,34,45,0
83,224,320,197,40,21,25,40,0
89,211,231,122,33,32,35,46,0
69,203,190,117,35,34,34,40,0
73,210,172,106,35,35,39,43,0
72,208,166,99,36,38,54,46,0
61,201,207,210,48,42,54,45,0
48,195,211,309,58,34,48,36,0
44,165,197,323,71,34,68,34,0
35,134,201,333,78,40,73,33,0
30,132,204,374,96,40,71,28,0
28,130,146,351,95,39,73,28,0
23,112,120,274,91,40,81,28,0
25,120,102,290,80,39,78,28,0
25,130,96,306,77,44,76,27,0
26,135,95,274,55,42,69,25,0
29,132,105,255,52,53,67,24,0
30,126,111,256,47,52,66,26,0
33,128,123,245,51,83,49,27,0
38,152,140,306,58,82,47,25,0
54,224,204,293,58,86,46,30,0
63,257,213,284,54,80,46,33,0
64,280,254,278,54,80,33,31,0
68,336,261,256,50,48,33,29,0
74,342,388,183,40,39,29,36,0
75,316,403,193,42,35,40,40,0
72,334,404,184,40,32,59,47,0
75,320,396,178,41,35,93,53,0
77,266,403,173,39,35,95,56,0
76,282,283,109,32,33,95,54,0
72,289,227,77,30,35,99,57,0
69,237,230,75,31,34,92,50,0
68,234,197,94,31,35,63,46,0
61,219,168,101,66,38,66,43,0
52,169,158,169,75,39,74,44,0
42,124,169,243,88,43,62,36,0
43,147,164,300,95,45,63,36,0
37,154,171,328,100,44,65,34,0
36,144,169,358,94,50,64,34,0
34,138,160,354,93,50,57,33,0
34,138,131,345,87,43,58,30,0
31,117,122,336,91,46,57,31,0
33,105,127,305,87,45,54,29,0
35,131,128,283,80,36,58,29,0
33,130,129,278,77,37,59,26,0
31,131,132,310,75,58,68,27,0
30,156,127,269,63,91,71,25,0
31,167,123,280,63,96,78,25,0
36,158,139,266,59,102,73,31,0
44,182,145,252,65,103,78,40,0
65,195,195,152,64,131,72,50,0
66,215,277,232,72,126,64,55,0
65,272,390,238,73,128,51,56,0
68,277,403,239,70,126,54,54,0
71,283,451,250,67,151,39,50,0
65,327,459,249,61,122,48,55,0
69,303,440,188,52,108,53,53,0
100,250,370,160,43,104,53,64,0
128,253,359,155,42,101,58,71,0
135,254,312,119,36,60,59,71,0
132,181,281,110,36,98,55,62,0
135,187,236,128,50,100,52,61,0
115,185,198,219,61,101,57,50,0
79,168,187,244,62,107,71,37,0
61,129,161,263,64,107,77,34,0
56,120,135,272,66,73,76,32,0
38,95,132,272,66,81,79,28,0
33,81,127,289,67,113,77,28,0
30,88,128,275,68,114,57,27,0
30,87,122,273,68,112,56,31,0
30,84,126,277,69,109,55,29,0
31,81,128,287,71,99,68,28,0
29,87,115,222,63,61,72,27,0
29,80,98,236,63,46,78,27,0
29,80,108,270,64,43,77,22,0
30,125,147,270,62,42,76,24,0
30,139,186,265,49,41,60,25,0
36,148,220,262,49,40,50,26,0
41,160,235,240,46,38,41,31,0
44,175,239,200,43,37,28,39,0
60,205,257,279,49,38,30,45,0
65,208,262,272,47,37,28,48,0
65,212,251,279,49,26,31,52,0
77,217,261,284,52,36,31,49,0
80,296,299,272,50,36,45,45,0
71,265,281,177,41,36,45,39,0
69,273,272,161,40,37,47,37,0
75,282,269,137,35,37,47,34,0
64,289,254,130,30,26,51,38,0
58,194,238,135,27,25,43,36,0
56,200,238,133,31,24,44,36,0
54,184,229,121,34,25,41,34,0
47,163,232,127,38,36,55,33,0
44,146,245,253,51,37,59,33,0
47,149,205,261,57,40,66,34,0
44,136,199,310,63,41,69,32,0
42,131,179,327,72,44,75,32,0
37,126,159,331,79,38,68,30,0
32,113,128,293,84,40,64,24,0
27,113,128,307,92,42,62,21,0
24,106,99,269,88,40,60,23,0
26,97,108,256,86,36,53,23,0
25,100,110,304,83,34,55,22,0
25,89,106,267,73,33,59,23,0
24,86,122,280,61,34,59,26,0
34,116,156,272,70,35,67,30,0
37,121,156,265,62,37,70,37,0
46,138,169,191,56,37,66,41,0
49,162,221,183,56,38,60,43,0
54,235,253,108,51,32,53,43,0
55,230,264,97,39,36,36,42,0
67,250,281,135,38,33,36,46,0
67,261,283,141,39,33,35,44,0
67,268,325,148,34,32,35,43,0
67,215,326,161,36,31,34,44,0
68,230,320,210,35,27,34,44,0
61,217,309,217,41,35,24,41,0
57,197,321,236,45,35,24,40,0
72,194,262,229,44,34,30,50,0
71,216,252,220,52,35,31,50,0
73,199,247,177,52,34,33,51,0
72,212,248,135,47,25,32,47,0
76,209,216,90,43,23,30,45,0
61,198,194,85,45,31,24,33,0
62,176,154,160,35,32,22,32,0
56,174,134,172,37,33,19,26,0
50,154,123,191,48,33,18,26,0
41,174,126,264,57,45,19,26,0
41,168,120,270,60,39,23,26,0
36,185,121,242,66,38,25,24,0
34,180,109,237,77,38,35,25,0
29,173,96,269,77,44,38,26,0
29,157,95,227,75,33,61,29,0
27,153,99,233,79,34,63,29,0
25,133,91,222,76,40,66,30,0
25,141,117,216,65,41,64,32,0
25,142,130,156,60,36,63,31,0
25,135,143,189,58,37,48,27,0
28,128,176,182,49,39,44,26,0
28,110,190,218,54,33,39,26,0
32,128,251,240,67,32,36,27,0
47,159,274,261,66,31,37,29,0
48,174,272,215,63,32,29,30,0
62,213,273,213,61,33,36,33,0
68,225,304,181,57,31,39,36,0
75,224,268,155,41,32,41,43,0
69,227,289,130,37,32,42,42,0
87,231,292,128,35,31,61,52,0
81,238,281,123,35,27,58,54,0
86,260,254,117,58,27,57,54,0
80,252,260,118,60,26,61,48,0
87,232,251,100,70,36,74,50,0
71,215,244,174,85,36,65,38,0
74,170,232,228,93,38,70,35,0
63,116,218,286,93,38,93,33,0
64,108,193,317,106,46,98,36,0
53,111,151,368,106,39,97,35,0
49,113,143,357,109,42,101,34,0
39,109,150,346,108,41,100,33,0
38,111,145,338,101,41,90,33,0
33,108,136,333,87,37,84,28,0
31,100,112,309,81,38,77,27,0
29,106,115,303,72,36,78,31,0
30,115,125,291,82,35,75,29,0
29,119,123,256,86,37,66,28,0
36,148,128,298,86,30,71,32,0
47,147,135,273,85,26,68,36,0
62,181,142,260,78,36,59,34,0
68,214,127,249,62,96,67,36,0
85,246,153,239,48,104,64,42,0
87,277,174,130,66,111,55,42,0
92,283,210,113,67,111,51,43,0
83,278,246,95,65,110,49,47,0
84,258,261,90,67,92,37,48,0
83,253,308,102,66,92,32,51,0
131,217,409,99,46,90,30,56,0
132,263,401,96,44,91,32,53,0
147,259,388,92,46,90,44,52,0
155,259,380,86,48,65,43,55,0
172,259,345,120,57,57,45,53,0
143,264,216,164,82,48,46,48,0
137,227,205,201,87,47,49,50,0
121,207,182,215,91,48,40,49,0
107,204,178,286,102,47,46,43,0
61,178,157,292,106,39,49,38,0
43,153,132,298,89,37,69,35,0
41,139,130,291,94,43,69,31,0
39,140,159,301,93,44,78,29,0
39,138,167,243,81,41,77,30,0
40,140,172,221,74,44,77,29,0
43,140,179,214,85,70,62,28,0
43,132,172,217,77,73,64,31,0
46,155,157,248,84,74,58,32,0
44,172,171,315,85,79,53,31,0
51,189,177,367,89,81,52,34,0
73,197,177,364,79,60,55,35,0
78,201,186,372,92,97,62,49,0
90,206,293,393,87,104,56,53,0
98,213,307,355,84,103,58,62,0
102,220,320,301,79,102,64,70,0
93,222,336,295,76,102,62,70,0
96,226,345,274,62,62,52,63,0
89,227,284,215,58,49,52,62,0
81,209,264,193,52,43,51,53,0
72,199,240,185,47,40,40,43,0
66,198,219,163,46,37,36,42,0
65,203,212,147,38,34,35,39,0
64,195,175,92,31,21,36,36,0
76,197,177,66,27,24,40,41,0
74,206,178,63,27,23,44,39,0
74,196,161,98,33,25,52,40,0
66,195,136,154,55,26,51,39,0
61,199,134,196,57,26,50,37,0
47,197,123,282,62,26,58,31,0
48,171,117,292,64,27,65,31,0
42,173,121,291,67,26,66,30,0
38,166,120,279,54,26,69,28,0
34,143,126,313,68,29,80,29,0
28,144,120,260,67,29,80,27,0
27,131,112,260,68,36,82,30,0
34,133,130,265,67,38,78,32,0
38,160,128,305,67,38,89,33,0
42,164,134,272,61,37,89,38,0
45,187,146,268,58,39,88,38,0
47,193,172,283,63,37,80,39,0
53,226,191,306,67,36,79,42,0
60,212,199,271,67,36,64,43,0
61,214,282,253,59,35,49,40,0
68,199,313,280,62,32,45,40,0
71,211,364,283,60,30,54,39,0
101,175,365,254,54,36,53,36,0
104,169,369,242,48,34,53,43,0
110,170,316,235,49,35,56,52,0
105,153,300,212,43,35,61,54,0
158,164,237,172,39,35,53,62,0
145,164,229,167,41,29,55,62,0
152,182,214,155,42,29,56,62,0
148,181,203,155,45,27,53,54,0
151,186,193,191,51,28,47,52,0
96,166,173,224,57,26,45,44,0
83,165,147,238,58,24,50,42,0
62,138,163,322,71,26,50,33,0
58,140,162,331,80,28,60,35,0
49,132,135,338,81,28,58,34,0
42,122,139,324,79,27,73,32,0
40,116,139,315,77,29,75,34,0
33,130,131,297,71,28,76,33,0
30,119,129,289,66,28,71,29,0
27,135,158,266,62,27,76,27,0
28,143,161,260,60,26,63,30,0
30,205,217,274,56,24,54,26,0
47,199,216,227,53,24,51,32,0
56,200,226,226,50,22,47,36,0
64,195,232,240,52,24,44,45,0
74,244,242,235,53,25,59,44,0
88,212,198,223,56,29,64,50,0
81,249,223,240,57,29,63,48,0
78,261,217,250,55,34,64,48,0
73,263,194,203,54,31,58,41,0
68,217,182,253,60,31,41,41,0
56,202,175,264,60,29,33,35,0
59,152,135,236,56,29,33,35,0
61,128,145,242,54,25,30,41,0
77,122,140,249,50,25,30,50,0
73,113,126,200,40,24,31,50,0
82,138,135,282,44,27,33,56,0
84,161,138,304,43,27,43,55,0
81,158,113,292,41,26,46,50,0
71,173,128,296,44,26,46,43,0
75,175,136,333,45,26,48,43,0
57,167,124,288,41,21,46,34,0
55,146,118,265,56,20,40,35,0
57,178,128,281,57,21,40,32,0
54,165,140,276,57,22,40,28,0
50,181,146,255,60,23,38,26,0
53,172,152,268,62,26,44,28,0
54,164,148,260,52,28,44,25,0
52,134,146,262,52,27,41,25,0
49,138,194,271,55,25,43,27,0
49,133,227,253,51,25,41,27,0
51,139,260,245,51,25,37,32,0
49,151,267,262,50,23,33,34,0
55,148,271,304,54,25,35,38,0
56,150,227,290,51,29,29,35,0
54,136,196,305,53,30,31,38,0
52,148,147,312,51,30,29,35,0
48,146,158,327,53,30,36,33,0
38,150,145,274,48,27,44,30,0
38,140,143,280,48,24,49,30,0
41,171,139,269,47,22,52,29,0
43,156,151,213,42,20,54,29,0
48,170,141,164,38,20,50,29,0
50,164,147,146,36,23,50,28,0
55,182,158,187,38,24,50,30,0
59,159,164,221,42,24,51,31,0
57,156,161,229,43,27,47,29,0
56,174,167,272,44,28,47,29,0
56,181,168,292,47,26,37,30,0
51,171,152,260,47,25,34,29,0
45,164,131,230,42,24,28,31,0
49,165,122,263,43,22,29,31,0
50,139,105,234,44,22,30,32,0
51,130,104,233,41,22,31,32,0
54,122,105,232,39,24,30,36,0
58,116,114,221,39,24,30,33,0
55,106,112,165,35,23,31,34,0
56,100,136,150,36,23,30,35,0
57,106,140,163,35,24,30,35,0
58,126,137,174,38,23,27,33,0
53,129,143,234,44,23,28,35,0
57,145,149,283,52,26,28,39,0
55,151,129,281,51,26,27,38,0
52,178,131,277,52,25,26,35,0
48,181,146,287,51,25,25,33,0
45,179,138,257,48,24,26,30,0
37,171,135,214,39,22,22,21,0
39,197,148,206,36,23,24,21,0
42,184,146,217,35,23,33,25,0
49,170,137,193,31,21,36,30,0
52,169,147,176,29,23,37,32,0
55,168,146,170,28,23,37,33,0
57,132,138,209,35,22,36,34,0
58,120,137,169,36,22,27,35,0
59,156,177,236,44,25,30,39,0
59,166,174,244,46,24,30,41,0
59,188,184,284,51,23,31,43,0
54,177,182,300,51,25,31,45,0
60,192,179,307,53,26,35,48,0
56,159,134,264,48,23,31,42,0
58,177,129,303,53,25,30,41,0
59,166,120,272,51,25,29,38,0
59,172,109,244,48,24,29,35,0
50,172,108,236,44,22,24,27,0
50,173,118,234,44,24,23,32,0
50,158,132,181,36,23,22,31,0
50,167,142,216,36,26,23,34,0
49,172,166,198,33,25,23,36,0
53,157,176,193,36,26,24,39,0
48,168,174,187,35,25,25,36,0
46,160,164,169,33,23,26,39,0
44,160,153,107,31,22,26,39,0
49,157,156,110,30,24,28,43,0
50,150,150,133,28,23,26,40,0
48,177,157,155,29,24,27,40,0
50,185,166,163,33,24,27,35,0
48,194,176,198,31,23,26,34,0
45,194,154,238,40,23,26,28,0
42,198,155,239,41,23,27,29,0
40,178,149,291,43,21,24,26,0
34,171,134,290,43,23,24,26,0
34,144,126,267,45,24,21,24,0
30,153,141,229,39,23,18,21,0
32,166,144,223,37,22,20,25,0
54,177,140,129,33,24,20,26,0
65,177,154,121,30,21,22,30,0
96,177,155,109,27,21,25,41,0
105,173,153,97,24,21,27,53,0
105,173,163,76,22,21,25,56,0
99,151,160,65,21,20,27,57,0
92,147,167,117,37,22,38,56,0
63,149,169,251,70,27,52,47,0
48,138,173,327,83,30,57,35,0
44,116,157,360,89,32,65,27,0
39,118,162,368,91,33,70,27,0
40,138,142,355,86,34,78,26,0
34,135,134,288,65,30,74,26,0
40,140,129,217,50,29,71,28,0
43,135,147,161,57,34,67,28,0
44,128,160,232,60,34,62,30,0
45,135,174,235,63,33,46,31,0
55,145,180,230,62,34,42,38,0
52,148,173,214,60,32,39,39,0
51,168,173,214,44,26,35,42,0
51,172,167,118,33,25,31,39,0
50,226,156,118,28,24,28,38,0
41,224,152,117,25,24,22,30,0
42,236,161,204,35,25,25,31,0
42,237,152,274,50,25,27,24,0
41,232,150,281,52,24,31,28,0
40,162,155,297,53,28,45,29,0
40,167,152,307,59,29,49,28,0
34,148,147,262,55,30,56,27,0
33,126,150,300,52,30,60,30,0
34,139,148,305,50,35,61,26,0
31,132,137,298,54,33,52,23,0
29,121,136,286,53,32,53,26,0
31,156,127,283,51,30,57,26,0
35,166,107,156,42,31,53,23,0
39,158,91,127,42,28,52,26,0
43,156,99,136,42,32,53,28,0
47,150,113,200,38,33,50,33,0
53,115,114,217,40,34,38,33,0
49,114,131,222,39,32,39,35,0
49,126,155,247,42,28,36,37,0
60,175,158,237,36,24,33,36,0
60,191,153,185,35,22,31,32,0
58,200,146,160,32,20,26,30,0
58,200,141,146,32,20,22,31,0
58,195,122,107,29,19,23,28,0
44,167,121,175,35,22,23,28,0
42,203,129,186,35,21,22,26,0
36,198,131,194,35,21,27,28,0
35,196,133,207,35,22,32,25,0
32,192,139,241,38,23,33,25,0
30,188,133,199,33,21,40,24,0
29,162,114,199,31,21,40,25,0
29,158,112,195,43,33,46,23,0
30,152,100,184,45,34,49,24,0
29,169,91,130,42,35,55,24,0
30,166,83,123,45,41,57,25,0
31,145,85,95,45,42,63,25,0
33,136,85,100,33,34,59,27,0
35,146,84,100,28,33,57,26,0
40,130,81,100,28,32,52,30,0
47,123,82,83,25,22,45,30,0
44,129,77,80,23,20,38,31,0
48,137,80,67,23,20,33,31,0
47,153,87,69,26,20,30,31,0
46,149,85,68,25,20,25,27,0
44,175,89,71,25,21,25,28,0
48,173,100,109,28,22,25,31,0
44,163,97,115,30,22,24,32,0
43,134,92,115,28,22,24,31,0
40,139,87,116,31,22,22,30,0
35,103,85,112,32,21,21,29,0
28,101,70,106,32,21,21,25,0
26,103,72,107,31,21,20,24,0
25,99,65,116,33,20,20,24,0
24,92,65,116,29,20,19,23,0
22,88,62,121,28,20,20,20,0
21,81,70,106,26,20,22,18,0
19,88,72,117,26,19,21,16,0
20,86,72,101,23,20,21,18,0
26,96,69,104,25,20,22,26,0
33,113,72,101,25,21,23,27,0
35,108,95,92,24,20,21,29,0
44,121,98,70,25,21,24,32,0
47,128,101,67,25,21,24,33,0
53,132,120,56,23,21,23,35,0
60,136,121,49,22,19,22,35,0
64,164,111,82,23,20,22,34,0
59,159,102,78,20,21,21,33,0
64,164,107,81,21,19,21,34,0
59,170,88,83,21,19,20,29,0
53,162,88,83,21,21,23,33,0
47,134,78,82,23,20,23,35,0
48,140,83,87,30,20,22,33,0
37,146,83,88,31,21,21,29,0
33,128,84,87,31,21,22,27,0
24,134,80,98,33,20,19,21,0
23,132,79,117,32,20,18,17,0
24,115,73,117,28,19,19,17,0
24,99,65,115,26,18,17,19,0
27,100,93,119,27,18,17,20,0
33,89,100,117,25,18,17,23,0
38,78,104,79,25,18,20,31,0
45,77,105,74,24,18,22,32,0
46,73,106,96,25,18,23,31,0
54,88,87,98,24,21,26,35,0
55,84,80,92,24,19,26,33,0
61,148,84,90,23,21,25,32,0
57,169,94,89,22,21,23,33,0
57,168,92,59,23,21,22,34,0
51,169,88,44,23,18,21,32,0
50,187,87,37,22,18,22,33,0
37,144,73,26,21,16,22,27,0
35,136,76,60,22,18,22,27,0
36,171,84,65,27,18,23,26,0
32,168,83,72,26,19,20,22,0
27,147,85,83,27,21,22,24,0
28,159,87,89,29,21,20,24,0
26,156,76,108,31,24,21,24,0
24,136,65,110,27,25,22,24,0
29,134,66,109,27,25,22,25,0
31,140,61,102,27,23,21,24,0
37,146,75,99,26,23,22,27,0
54,170,101,60,21,19,23,29,0
56,167,104,72,21,19,21,28,0
56,164,106,77,24,20,20,29,0
58,159,108,79,23,20,20,29,0
62,141,100,78,23,20,19,26,0
50,104,68,75,27,19,18,26,0
49,104,65,57,27,19,18,27,0
53,133,60,52,25,19,20,28,0
50,137,55,82,26,20,22,27,0
39,137,51,84,24,21,22,27,0
38,134,58,105,26,21,23,23,0
36,117,63,120,30,21,23,21,0
27,75,69,144,32,21,23,21,0
26,74,87,132,32,21,19,20,0
27,87,99,158,37,20,20,21,0
31,112,111,239,49,21,20,23,0
35,120,108,249,48,22,21,25,0
36,123,103,241,49,22,20,24,0
35,120,92,244,50,20,20,26,0
36,108,85,241,49,22,20,26,0
35,91,74,160,34,24,19,26,0
35,98,78,135,32,24,21,28,0
48,102,95,129,29,23,25,34,0
52,148,106,120,31,27,26,39,0
53,205,119,91,27,25,26,40,0
51,209,128,69,27,23,27,41,0
50,208,128,59,27,23,25,39,0
39,246,125,47,27,23,21,35,0
34,228,114,111,25,20,22,28,0
32,193,104,115,25,20,22,26,0
29,182,85,119,26,25,21,23,0
27,172,85,132,29,24,21,23,0
23,110,81,132,29,24,22,22,0
25,99,84,91,28,27,22,23,0
27,97,87,86,29,26,21,21,0
38,162,91,82,28,24,23,24,0
41,165,92,85,25,24,24,24,0
50,167,83,87,25,23,24,27,0
54,209,100,78,25,20,24,30,0
58,213,105,75,23,21,24,35,0
53,190,111,72,24,20,22,33,0
51,191,116,109,26,21,23,33,0
42,191,116,120,30,30,22,32,0
38,150,118,279,42,34,22,29,0
28,130,110,289,45,38,24,25,0
27,101,103,298,46,41,36,25,0
26,96,97,284,45,42,35,25,0
28,105,101,281,42,36,38,24,0
34,101,79,148,33,33,39,31,0
51,99,83,154,32,28,38,31,0
54,110,87,138,30,23,28,30,0
56,134,93,138,31,22,27,29,0
56,134,102,147,38,21,26,32,0
53,138,113,214,41,21,23,26,0
36,139,109,245,46,21,25,27,0
34,140,110,255,47,22,25,29,0
33,115,103,260,51,24,30,31,0
33,100,87,269,51,31,32,28,0
29,83,67,226,48,30,31,29,0
28,73,62,173,42,30,31,26,0
25,52,53,159,42,30,31,23,0
51,124,70,144,37,31,30,36,0
56,161,83,110,27,23,26,39,0
64,197,108,61,26,23,27,40,0
74,213,116,53,24,23,27,48,0
75,220,116,42,23,19,27,48,0
65,238,124,90,26,14,24,40,0
61,219,124,104,29,28,31,37,0
54,189,117,130,32,29,36,34,0
38,172,113,134,33,31,39,23,0
39,170,130,243,38,32,43,23,0
33,100,117,232,37,33,53,21,0
36,97,111,238,36,26,52,23,0
40,116,95,227,34,24,51,29,0
65,146,103,226,33,23,49,34,0
75,182,111,105,26,23,45,34,0
79,186,110,100,26,23,31,36,0
80,190,110,66,23,20,26,34,0
80,196,119,86,26,21,23,34,0
63,178,118,129,32,23,21,31,0
54,143,128,195,40,25,26,33,0
45,137,132,206,43,32,35,31,0
40,135,139,222,48,32,45,31,0
35,111,135,222,47,34,53,26,0
32,105,129,200,43,32,55,24,0
27,111,90,157,39,29,54,25,0
30,133,81,157,35,23,49,25,0
40,158,71,138,28,23,45,30,0
42,166,65,125,29,20,34,31,0
44,175,71,125,29,21,32,32,0
42,160,65,96,26,22,30,29,0
39,139,62,68,26,21,29,29,0
36,120,58,60,29,21,22,25,0
35,108,58,82,28,23,24,23,0
35,99,54,86,28,21,22,22,0
35,110,63,90,29,21,22,22,0
35,110,66,91,30,21,23,21,0
30,116,78,89,27,22,22,19,0
31,114,78,65,27,20,21,21,0
32,114,85,70,27,19,21,21,0
34,109,88,72,24,19,22,23,0
33,108,85,91,26,19,20,24,0
32,81,74,95,28,18,18,24,0
34,122,76,95,28,18,18,22,0
33,119,66,106,26,19,20,23,0
32,126,53,102,29,18,18,22,0
33,123,52,94,28,18,18,22,0
35,139,58,99,26,20,20,22,0
36,110,54,103,25,19,21,24,0
35,115,61,80,25,19,19,23,0
33,111,60,77,22,22,20,23,0
36,119,60,65,22,22,20,24,0
37,102,61,53,22,20,20,25,0
40,128,73,44,23,21,20,27,0
42,130,69,40,20,22,19,28,0
44,136,71,37,20,20,18,27,0
43,132,71,38,18,21,18,28,0
43,133,91,76,23,22,19,27,0
37,102,82,78,25,20,17,23,0
35,98,84,79,26,21,18,23,0
46,97,88,84,27,22,20,24,0
46,110,109,116,32,23,23,23,0
46,107,118,173,38,24,26,28,0
46,111,130,266,44,27,27,27,0
48,117,138,278,46,25,32,31,0
37,117,148,282,48,25,52,30,0
35,129,138,280,45,25,55,28,0
34,134,120,287,43,23,62,25,0
35,136,115,252,38,23,78,30,0
29,130,118,322,48,24,78,27,0
33,128,122,335,49,25,69,28,0
33,105,138,362,50,25,67,30,0
35,103,138,376,61,27,64,32,0
36,103,138,365,62,25,49,27,0
37,119,132,370,60,26,48,26,0
36,111,116,356,58,23,44,26,0
38,127,97,336,59,21,45,27,0
40,127,102,296,44,22,38,26,0
39,133,113,311,44,23,40,26,0
39,121,108,240,38,21,40,28,0
35,133,109,244,37,22,45,25,0
32,121,110,232,35,22,47,22,0
28,118,106,242,35,23,46,23,0
30,109,90,204,32,21,37,22,0
29,108,95,179,29,23,35,20,0
33,103,92,176,30,24,27,21,0
35,104,97,208,33,25,23,22,0
37,110,98,194,33,23,22,21,0
36,110,98,191,34,25,22,21,0
38,106,92,194,36,25,21,24,0
36,111,99,191,37,23,20,23,0
36,112,111,174,34,24,22,24,0
33,102,102,153,31,23,21,26,0
32,102,98,163,31,21,22,26,0
35,130,105,163,29,20,21,24,0
33,120,98,161,29,22,21,26,0
31,121,89,179,31,22,19,24,0
31,126,95,213,36,23,20,24,0
30,127,101,211,36,22,20,24,0
25,100,102,216,37,23,20,26,0
24,99,102,216,36,22,20,23,0
27,99,96,248,38,22,20,25,0
31,94,95,220,35,23,20,24,0
34,100,90,232,38,23,20,26,0
34,98,83,229,39,22,19,24,0
39,100,98,274,43,20,19,27,0
38,95,91,222,42,20,18,25,0
34,94,91,222,40,19,17,24,0
31,97,95,243,40,21,19,22,0
31,97,95,245,39,22,19,23,0
26,92,90,232,36,23,18,21,0
24,90,89,229,35,26,53,21,0
25,86,86,232,37,27,57,23,0
28,66,82,181,38,26,57,23,0
31,76,94,249,60,27,60,26,0
32,80,91,261,72,31,63,26,0
33,82,96,276,74,31,43,26,0
32,85,97,272,74,31,40,24,0
32,85,100,286,77,31,39,25,0
30,78,94,266,62,30,37,22,0
29,71,89,230,49,26,32,23,0
30,84,96,219,46,25,28,23,0
31,86,104,228,45,23,26,23,0
29,91,123,244,38,23,26,22,0
30,100,124,207,38,23,24,23,0
30,101,123,200,35,22,23,22,0
29,104,121,214,34,23,20,20,0
29,119,114,219,35,23,19,22,0
29,116,88,238,39,23,20,21,0
27,119,79,236,38,23,20,21,0
28,124,93,236,39,23,19,21,0
29,121,85,216,36,22,19,21,0
27,102,88,263,40,24,20,21,0
30,100,88,218,38,23,17,21,0
33,87,105,221,39,24,17,21,0
31,73,92,230,53,25,18,24,0
32,54,100,258,55,25,19,28,0
33,80,101,200,53,26,19,28,0
31,87,107,197,54,26,21,26,0
27,104,94,202,56,25,22,26,0
27,106,93,197,43,25,21,24,0
26,112,88,208,43,25,24,21,0
28,98,87,207,43,23,24,19,0
29,101,91,223,41,23,25,20,0
28,80,87,217,40,23,26,21,0
29,80,91,250,39,24,26,22,0
26,71,84,212,36,22,24,20,0
27,97,82,216,36,24,24,21,0
26,92,90,238,37,24,22,21,0
29,107,99,261,38,25,22,19,0
29,105,99,226,39,26,23,17,0
31,116,105,223,40,24,22,19,0
30,95,108,219,40,23,21,19,0
34,94,94,246,40,25,22,20,0
31,83,87,226,38,24,21,19,0
34,112,89,240,39,22,20,24,0
34,111,97,242,39,22,21,24,0
35,118,99,252,40,21,22,26,0
33,117,112,228,37,19,23,27,0
34,126,114,216,37,17,22,27,0
35,107,113,227,36,21,23,30,0
35,107,102,228,34,21,22,29,0
36,108,103,215,34,22,22,28,0
36,106,87,254,37,23,22,27,0
35,90,79,251,35,24,22,28,0
32,86,75,223,34,20,20,21,0
31,72,74,226,35,22,21,22,0
27,69,64,228,33,22,20,24,0
30,70,72,178,32,22,20,24,0
30,70,76,188,33,23,19,25,0
34,69,73,184,33,24,23,27,0
48,77,73,172,30,22,33,36,0
53,69,71,166,30,24,55,40,0
53,66,79,124,26,22,57,42,0
55,71,102,119,24,27,65,44,0
55,71,120,151,29,28,67,44,0
43,68,131,239,41,29,66,37,0
35,76,141,281,44,27,50,32,0
33,79,140,290,46,29,49,29,0
37,79,160,342,55,33,60,33,0
35,83,148,339,54,33,64,31,0
34,77,139,291,51,36,68,31,0
35,70,131,255,49,37,68,32,0
46,67,127,233,47,37,70,37,0
54,75,92,139,37,30,59,31,0
58,152,111,134,33,30,54,29,0
63,156,131,136,34,26,47,31,0
64,157,131,145,36,25,46,28,0
57,161,134,161,36,26,57,24,0
46,158,134,252,45,26,52,21,0
45,94,128,250,46,26,62,22,0
38,100,113,256,42,26,65,21,0
39,110,119,332,48,25,66,22,0
38,112,123,348,50,26,54,23,0
37,116,115,305,47,24,53,25,0
33,113,118,345,52,26,44,31,0
35,99,114,359,56,27,38,34,0
32,88,105,295,52,27,43,34,0
33,114,108,280,53,26,42,34,0
39,140,129,308,56,30,49,35,0
40,139,121,279,52,29,65,32,0
38,140,127,300,53,28,67,29,0
37,141,127,295,51,28,67,28,0
36,114,124,297,49,28,70,28,0
28,177,116,260,44,24,65,25,0
27,200,116,251,47,23,45,23,0
28,228,124,221,45,24,43,23,0
29,229,123,228,46,23,38,22,0
31,233,112,224,45,25,36,24,0
31,173,97,219,42,24,36,23,0
30,151,96,217,38,23,37,23,0
29,110,89,239,38,22,45,21,0
32,106,90,240,41,22,49,25,0
31,104,92,232,41,20,49,23,0
33,98,85,259,41,21,48,24,0
32,101,93,249,40,22,48,28,0
34,104,84,192,34,22,39,28,0
37,103,95,172,30,23,34,26,0
38,126,105,184,31,23,37,30,0
40,131,117,164,29,23,38,32,0
45,128,108,182,28,22,36,34,0
47,138,103,210,35,22,35,35,0
43,142,94,245,36,21,37,36,0
45,120,96,260,41,20,35,35,0
46,135,86,270,42,20,40,35,0
41,132,91,267,42,22,41,30,0
39,130,98,283,41,21,41,30,0
42,136,107,287,44,21,41,28,0
36,136,102,293,42,21,37,26,0
36,110,101,270,42,21,35,24,0
35,107,102,320,42,20,42,25,0
35,90,130,330,51,25,55,24,0
33,85,129,355,54,27,54,24,0
33,85,129,354,56,28,59,25,0
31,93,165,364,56,29,57,27,0
35,110,171,352,60,31,57,29,0
32,115,166,327,53,30,47,27,0
35,107,175,280,47,30,48,32,0
34,103,179,272,46,33,44,29,0
33,130,166,269,50,34,51,28,0
29,131,171,240,49,31,45,26,0
35,144,177,231,48,30,43,26,0
36,153,179,225,47,30,43,25,0
39,162,171,243,50,26,40,27,0
40,140,156,283,49,24,29,29,0
42,135,154,283,50,25,29,29,0
43,129,133,278,47,23,36,30,0
48,130,114,300,52,22,38,31,0
53,132,120,287,50,21,38,30,0
53,146,124,274,56,23,70,30,0
53,146,131,311,56,25,74,31,0
49,145,143,327,62,28,72,32,0
41,146,144,325,61,28,72,29,0
32,152,145,338,61,30,77,29,0
32,142,149,331,56,30,56,27,0
30,152,128,294,56,27,52,25,0
32,157,132,317,56,27,52,26,0
32,221,142,304,53,26,66,27,0
32,227,161,322,63,26,65,27,0
36,236,184,345,63,26,65,32,0
37,253,197,364,60,29,72,31,0
39,248,191,361,62,30,71,36,0
39,187,186,391,69,32,69,34,0
46,175,185,352,61,30,72,38,0
49,176,165,310,59,33,82,36,0
51,175,160,325,64,35,88,38,0
48,172,152,300,77,108,136,37,0
49,169,147,254,78,109,155,44,0
43,160,121,281,83,117,174,45,0
37,141,110,291,84,120,183,44,0
35,81,96,235,81,123,181,42,0
41,82,89,214,65,71,155,39,0
47,98,120,213,55,69,135,33,0
48,127,149,243,46,54,110,32,0
57,196,177,243,47,44,87,37,0
59,200,182,245,43,36,86,37,0
58,203,201,267,50,33,74,38,0
51,195,191,295,57,34,78,37,0
50,185,173,242,55,34,68,35,0
38,126,154,223,53,34,67,30,0
36,151,155,228,58,34,61,31,0
34,195,140,205,51,29,56,35,0
39,202,140,248,44,27,60,35,0
41,198,133,261,44,26,62,33,0
41,194,124,295,47,25,59,31,0
41,172,115,290,41,23,56,30,0
38,152,131,317,43,23,54,23,0
33,165,137,263,42,22,34,25,0
32,166,140,264,45,21,30,25,0
34,160,155,236,43,21,36,27,0
32,166,190,238,43,21,51,27,0
31,141,193,208,39,21,53,28,0
32,117,199,214,40,25,61,28,0
31,118,210,227,45,28,62,27,0
33,114,194,226,44,32,72,32,0
33,110,188,240,48,34,77,33,0
32,89,167,240,51,34,82,32,0
30,89,148,237,52,30,77,30,0
37,144,161,206,56,28,75,31,0
35,148,173,254,58,24,71,25,0
34,147,152,283,60,21,55,22,0
35,150,166,290,59,27,50,24,0
35,145,171,306,60,28,49,23,0
31,79,151,337,53,30,57,22,0
33,69,139,311,53,30,48,25,0
32,62,131,266,47,34,53,25,0
32,57,107,251,45,30,57,23,0
30,63,91,228,48,31,62,24,0
27,60,86,229,49,31,61,24,0
28,70,99,228,46,31,66,24,0
31,81,102,279,53,28,64,25,0
39,107,105,299,57,27,58,29,0
42,125,152,336,65,27,53,29,0
46,136,179,325,65,27,47,28,0
47,216,220,319,65,27,44,30,0
52,275,235,298,60,28,44,31,0
49,284,242,286,61,29,45,30,0
49,381,226,229,47,30,55,32,0
46,402,228,245,96,125,110,36,0
44,384,223,245,164,192,151,35,0
40,354,210,226,191,280,194,42,0
38,345,203,230,204,293,242,45,0
38,227,197,282,206,295,247,45,0
38,179,171,263,188,269,251,43,0
34,131,143,265,135,227,231,41,0
34,100,136,253,94,104,199,36,0
49,95,134,237,58,57,139,35,0
47,91,131,181,51,47,131,35,0
47,88,136,219,57,89,95,36,0
49,89,104,232,68,97,93,38,0
48,76,116,270,67,95,89,36,0
32,60,116,277,67,98,84,32,0
36,73,118,294,69,99,81,30,0
40,82,118,257,61,60,62,27,0
38,79,117,237,43,44,62,26,0
36,80,104,207,43,43,60,26,0
37,79,102,198,42,37,59,27,0
32,60,89,164,38,34,60,26,0
35,99,98,168,36,87,61,29,0
36,105,94,158,36,88,46,27,0
36,105,85,142,29,90,42,27,0
35,106,94,180,31,92,41,25,0
35,119,98,178,36,95,61,28,0
28,81,77,259,44,53,62,26,0
33,76,83,263,44,50,63,26,0
32,77,87,261,44,43,64,26,0
33,74,77,238,41,37,66,27,0
31,88,88,238,38,30,44,25,0
30,89,93,160,31,24,41,24,0
25,89,101,162,29,23,38,23,0
29,91,102,162,29,21,36,24,0
26,98,108,163,28,21,32,24,0
26,66,95,162,27,27,30,23,0
26,64,82,115,23,28,34,23,0
25,69,83,167,28,27,35,21,0
30,81,94,187,31,28,36,23,0
33,97,93,196,33,30,35,25,0
35,107,97,198,34,26,39,24,0
35,124,103,197,32,23,33,23,0
36,119,88,162,32,24,31,24,0
29,109,90,186,34,22,30,22,0
27,91,92,180,33,21,30,22,0
26,87,95,193,35,19,33,24,0
27,70,89,192,35,20,39,25,0
28,88,99,178,31,21,44,27,0
28,94,93,122,25,21,44,25,0
29,91,88,120,32,21,46,26,0
30,105,87,92,31,22,41,24,0
32,122,100,101,32,21,35,23,0
38,109,90,100,33,22,29,26,0
48,112,93,99,34,25,31,31,0
52,113,92,79,28,31,59,29,0
56,97,88,74,30,30,71,33,0
55,67,79,49,29,31,73,34,0
54,76,79,40,28,31,76,32,0
47,88,74,44,28,31,75,30,0
42,115,81,99,27,30,54,30,0
41,126,91,104,28,31,37,27,0
40,126,96,216,39,31,35,27,0
35,123,103,232,38,30,29,26,0
33,124,99,251,41,30,29,24,0
33,115,99,276,42,24,26,25,0
33,124,97,280,38,22,26,24,0
34,134,95,221,29,20,22,25,0
35,143,100,215,31,28,20,27,0
40,150,110,207,29,27,18,25,0
42,145,104,155,27,28,18,23,0
37,127,97,148,29,29,17,23,0
35,134,98,133,31,29,18,21,0
34,125,88,130,28,23,20,18,0
28,121,89,176,33,23,27,21,0
31,124,90,198,37,22,26,21,0
36,132,95,203,37,22,27,25,0
37,145,95,201,35,23,27,24,0
36,145,98,211,38,23,27,27,0
38,134,96,209,33,23,21,27,0
34,125,93,206,29,23,22,28,0
28,114,92,202,27,21,21,25,0
32,108,121,207,28,20,24,26,0
38,131,148,219,31,26,27,27,0
36,160,147,172,34,25,27,27,0
36,162,151,151,35,24,30,25,0
36,170,158,153,35,25,30,26,0
30,151,134,149,34,25,27,24,0
24,134,99,206,35,18,25,22,0
28,102,99,209,34,19,27,26,0
29,139,102,213,34,21,26,26,0
36,153,96,215,34,20,25,27,0
38,162,98,211,33,22,25,26,0
38,164,96,111,27,23,24,24,0
35,155,86,97,24,22,21,18,0
35,126,76,70,21,20,19,21,0
27,119,69,52,19,19,19,20,0
31,128,80,58,22,18,22,28,0
31,138,89,78,26,16,20,29,0
33,144,91,173,32,20,21,30,0
35,141,96,198,35,19,20,29,0
43,128,117,241,40,21,23,29,0
42,140,123,324,47,24,22,27,0
45,147,121,323,45,25,22,28,0
46,149,123,316,44,25,22,27,0
46,165,127,304,44,25,22,29,0
40,165,107,289,43,24,21,28,0
42,156,98,220,38,23,19,24,0
47,171,113,256,44,23,22,24,0
44,180,121,226,44,22,22,25,0
42,168,119,232,44,22,22,22,0
42,168,118,213,42,21,21,24,0
37,154,117,268,43,22,22,23,0
28,120,106,247,38,23,21,24,0
27,107,107,273,35,21,21,24,0
30,99,101,301,39,24,22,24,0
29,103,112,310,44,24,21,22,0
30,107,103,243,41,23,20,22,0
30,108,105,235,44,24,20,19,0
30,117,89,208,43,23,21,19,0
30,120,93,159,42,23,19,21,0
30,115,89,178,38,24,21,24,0
30,110,94,179,37,23,20,24,0
34,126,99,198,37,22,20,26,0
38,111,100,185,37,24,19,27,0
40,133,119,218,38,22,21,26,0
40,136,130,253,39,24,20,25,0
41,144,129,268,43,26,22,24,0
39,125,124,248,39,26,20,22,0
41,134,139,256,42,26,20,23,0
41,128,130,282,44,28,19,25,0
44,120,114,247,44,25,17,27,0
43,115,115,225,42,24,18,28,0
40,131,111,230,42,24,17,29,0
42,150,93,233,39,25,19,28,0
40,154,100,199,37,24,20,26,0
36,156,110,186,35,24,20,21,0
38,161,111,214,40,24,20,23,0
38,152,114,206,40,23,22,22,0
32,142,118,205,39,23,20,24,0
31,149,112,209,38,22,20,24,0
31,163,104,201,38,21,23,25,0
28,182,109,199,35,20,22,21,0
30,197,106,243,36,19,21,23,0
32,199,112,260,39,22,22,23,0
31,189,104,235,38,22,22,23,0
33,181,106,242,37,21,19,22,0
36,176,119,233,37,22,18,23,0
39,161,125,189,38,25,22,24,0
36,155,119,159,34,22,20,22,0
39,149,115,228,44,22,21,22,0
39,149,119,224,43,23,22,23,0
40,140,112,220,45,21,23,24,0
38,177,123,221,43,20,21,23,0
38,207,128,214,44,20,22,29,0
43,218,129,136,32,20,21,29,0
48,218,123,120,32,22,22,31,0
45,213,116,180,32,23,20,29,0
45,200,104,185,33,21,20,30,0
49,165,116,236,38,24,20,26,0
43,152,121,264,44,24,20,28,0
37,145,128,287,47,25,18,25,0
36,136,124,254,44,25,21,24,0
35,115,117,262,45,25,20,22,0
31,152,105,305,42,24,22,22,0
32,154,105,284,39,24,23,23,0
33,160,120,299,42,24,24,26,0
34,164,122,301,42,23,24,28,0
34,155,126,333,43,24,24,30,0
34,118,125,256,40,23,22,31,0
37,128,120,251,38,23,20,28,0
33,139,106,210,31,22,21,28,0
34,162,132,223,33,23,20,25,0
35,178,130,150,31,22,20,23,0
39,208,138,156,33,23,19,22,0
37,198,145,147,34,22,21,23,0
39,190,151,209,37,22,18,23,0
39,170,135,198,34,21,18,23,0
41,159,131,218,34,21,19,25,0
38,143,117,226,33,21,22,25,0
37,177,107,252,38,20,23,25,0
37,199,96,209,38,20,25,23,0
39,200,87,195,38,19,24,23,0
38,195,91,176,36,19,22,22,0
35,171,85,159,36,17,20,22,0
37,135,87,121,30,17,19,20,0
38,115,84,129,27,18,17,23,0
36,112,82,160,31,20,19,23,0
35,158,99,195,34,20,20,23,0
34,163,103,204,34,20,23,24,0
33,170,109,209,35,21,21,24,0
30,158,110,229,38,20,21,23,0
30,174,121,233,42,22,21,23,0
29,135,103,205,41,24,19,19,0
30,127,102,192,41,24,16,17,0
25,113,108,214,46,23,18,18,0
30,129,112,246,48,24,22,21,0
32,116,99,250,45,20,21,23,0
33,131,99,262,46,19,22,25,0
33,135,97,265,46,19,23,26,0
34,148,96,277,42,22,23,25,0
31,127,100,235,41,22,19,25,0
29,140,108,218,39,22,20,23,0
27,120,110,266,41,23,21,24,0
28,132,110,275,43,26,20,25,0
30,131,111,278,47,32,19,24,0
29,137,102,287,50,42,20,23,0
30,117,114,318,52,74,20,25,0
31,126,117,265,55,103,22,24,0
31,110,120,260,54,109,21,21,0
33,112,115,239,53,111,22,26,0
42,137,117,217,49,109,21,25,0
42,152,110,203,53,94,21,24,0
43,155,121,204,47,62,20,25,0
45,183,132,198,46,51,19,26,0
41,180,125,178,41,43,20,23,0
34,162,124,169,40,39,22,24,0
36,168,120,96,27,34,21,25,0
39,186,118,87,32,36,22,29,0
38,163,98,71,28,32,22,28,0
41,163,99,52,29,32,24,30,0
46,174,109,43,30,32,22,29,0
49,160,122,32,30,28,22,31,0
52,141,112,36,25,24,24,31,0
52,176,127,46,27,27,27,31,0
56,214,139,101,30,25,26,33,0
57,213,159,133,37,27,27,35,0
61,218,150,137,41,27,26,33,0
60,230,150,136,40,25,25,34,0
62,208,141,135,39,22,23,36,0
58,171,129,101,37,21,23,34,0
60,190,110,52,28,19,22,33,0
53,194,100,43,23,20,25,34,0
51,196,112,41,23,20,25,35,0
75,251,125,35,24,22,31,46,0
81,268,131,34,24,22,34,48,0
75,253,112,33,23,20,33,47,0
78,249,117,30,22,19,31,49,0
80,231,111,31,25,19,31,47,0
57,171,109,69,25,17,25,35,0
50,164,127,111,26,21,23,33,0
50,210,147,114,34,21,24,32,0
46,205,162,237,41,23,27,31,0
40,211,169,246,41,24,26,28,0
46,207,173,258,43,25,24,28,0
50,207,166,253,42,22,24,25,0
51,165,155,259,38,23,24,27,0
50,172,150,160,33,21,21,25,0
50,169,147,146,30,21,23,30,0
42,176,138,110,26,20,23,28,0
41,170,126,87,25,19,22,29,0
42,164,122,67,25,19,23,29,0
41,151,103,56,23,18,22,28,0
39,142,80,51,23,17,21,25,0
39,125,60,45,23,17,21,26,0
34,89,114,51,25,17,19,26,0
33,86,220,76,25,18,19,24,0
38,177,253,77,25,19,18,22,0
42,183,259,79,24,19,17,23,0
47,218,264,93,25,19,17,24,0
46,219,251,115,28,22,20,24,0
44,213,171,107,26,21,20,24,0
39,152,123,119,34,21,23,30,0
34,162,126,198,39,23,23,28,0
26,135,120,204,39,22,23,27,0
26,170,115,200,38,20,23,26,0
30,178,110,200,39,18,23,26,0
31,176,103,193,33,19,21,22,0
33,171,87,113,27,17,19,22,0
36,157,90,94,27,16,21,24,0
36,128,88,94,24,18,20,24,0
32,141,92,148,28,19,20,25,0
29,137,94,180,30,19,22,25,0
30,125,100,257,41,23,24,26,0
28,122,106,289,43,23,23,23,0
27,113,105,296,47,23,24,24,0
29,99,106,277,44,23,23,23,0
31,128,105,268,45,24,21,23,0
31,144,98,198,37,22,20,24,0
31,151,96,171,34,21,19,24,0
32,159,100,164,30,22,20,23,0
32,157,101,200,31,22,20,25,0
31,134,102,191,27,22,22,25,0
28,116,101,196,26,21,23,23,0
31,117,104,179,25,22,24,24,0
33,140,112,163,25,19,24,25,0
32,139,106,103,22,18,24,24,0
33,155,127,91,23,19,23,24,0
41,214,141,67,24,19,22,30,0
83,261,147,51,25,20,24,40,0
88,292,164,50,25,20,23,41,0
90,307,169,37,28,21,23,48,0
99,401,178,36,26,22,22,55,0
96,381,171,34,27,23,23,53,0
66,368,172,31,24,23,19,46,0
60,355,155,29,22,26,22,54,0
59,355,152,25,20,26,23,48,0
45,241,123,24,20,25,22,39,0
46,258,130,23,18,23,22,37,0
42,234,118,21,19,24,23,37,0
40,198,107,21,22,20,21,29,0
48,169,105,20,22,18,20,32,0
46,171,105,21,22,18,21,31,0
45,123,90,21,23,21,20,31,0
45,132,85,23,22,18,20,30,0
43,134,85,25,19,19,21,25,0
33,157,78,95,23,19,21,22,0
40,178,91,130,26,21,21,26,0
41,190,92,132,28,20,23,27,0
40,184,100,139,30,20,24,27,0
40,182,106,240,39,22,23,26,0
38,185,109,228,37,21,22,26,0
35,186,103,214,34,19,22,24,0
33,188,110,221,33,19,21,24,0
40,180,104,218,33,19,22,26,0
41,198,100,100,25,17,21,25,0
45,189,96,86,25,19,24,27,0
43,174,94,76,25,20,23,25,0
46,181,86,48,24,20,23,24,0
39,189,120,45,23,20,22,24,0
39,173,122,37,20,21,22,24,0
34,167,128,34,19,21,20,23,0
43,176,131,33,22,21,20,28,0
47,184,141,30,22,21,21,29,0
52,182,112,26,22,22,21,33,0
52,192,178,181,32,27,24,34,0
55,196,180,192,34,25,24,34,0
47,175,184,203,33,26,25,32,0
43,171,179,212,34,25,25,31,0
38,175,183,213,33,24,25,25,0
42,167,118,119,23,18,21,23,0
44,168,109,102,22,19,21,26,0
48,169,98,89,22,16,19,24,0
51,145,92,67,20,17,18,30,0
52,136,83,65,22,17,18,30,0
48,123,74,55,22,17,18,30,0
42,122,79,53,22,19,17,28,0
36,118,87,60,22,20,18,28,0
31,115,90,61,22,21,19,25,0
29,130,90,68,21,21,19,24,0
33,144,93,70,21,20,19,23,0
32,130,84,71,21,19,22,22,0
33,128,80,51,20,19,23,22,0
31,126,69,49,20,19,24,22,0
31,119,83,36,20,19,23,22,0
28,116,79,32,20,19,23,21,0
30,113,80,32,19,21,21,23,0
29,110,78,66,21,21,19,23,0
28,121,85,68,22,20,16,22,0
30,119,72,68,24,22,21,28,0
35,108,87,72,24,23,23,32,0
35,137,87,76,25,22,24,31,0
36,149,80,76,26,21,26,32,0
39,153,90,78,23,23,26,34,0
38,147,104,78,21,21,22,29,0
38,147,101,76,21,20,23,25,0
39,131,126,77,20,18,21,25,0
38,130,128,53,17,20,19,23,0
35,137,118,50,20,18,19,19,0
37,154,118,72,20,17,19,21,0
35,152,119,71,21,18,16,20,0
32,159,91,66,20,18,16,21,0
34,156,89,65,21,19,16,20,0
36,137,88,63,19,19,18,22,0
33,115,81,35,18,21,18,21,0
32,113,73,34,18,21,18,22,0
34,99,77,46,22,22,17,21,0
34,151,122,47,22,21,19,21,0
32,158,123,48,22,20,18,21,0
37,165,119,48,23,20,20,22,0
36,166,117,48,24,20,19,21,0
37,173,116,34,20,20,22,21,0
37,119,66,30,21,21,21,24,0
36,154,90,39,22,22,20,22,0
32,157,86,43,23,22,20,22,0
36,176,88,44,24,21,23,23,0
31,170,88,44,24,22,22,23,0
32,186,91,46,24,21,22,22,0
33,157,75,39,23,22,22,22,0
34,183,91,32,23,21,21,22,0
32,173,91,29,22,20,20,23,0
32,170,92,28,21,20,20,23,0
36,157,93,39,21,18,21,26,0
33,153,91,38,20,20,22,25,0
36,116,89,40,20,20,22,27,0
38,118,106,42,22,22,22,26,0
42,160,105,41,22,21,20,25,0
38,170,105,46,24,24,21,22,0
40,168,100,46,23,21,20,25,0
37,158,85,45,22,21,20,22,0
35,161,76,44,23,20,20,23,0
29,122,87,45,23,20,21,23,0
30,122,87,29,21,18,19,23,0
30,120,87,27,21,18,19,19,0
34,122,90,23,21,18,21,21,0
31,104,80,42,20,18,20,20,0
35,113,77,42,21,20,19,25,0
35,98,74,44,21,20,20,24,0
35,111,78,46,22,22,22,25,0
34,116,84,47,22,21,20,25,0
36,125,82,47,21,21,21,24,0
35,116,72,48,20,18,21,20,0
38,124,73,45,21,18,20,21,0
38,124,73,45,21,18,20,21,0
